I,II,III,aVR,aVL,aVF,V1,V2,V3,V4,V5,V6
-53.30527151279239,-93.91962420141863,-43.710170283045954,72.96134291408907,-5.868631580759029,-67.34972337833415,46.639328106215544,-50.188645417012594,-108.70335955262453,-88.7299188746938,-105.78481979056869,-90.12149394994822
-53.91502681526981,-94.33370389974698,-43.98733167280443,73.33787613894128,-6.131952850521884,-67.67059116891141,42.282757594855866,-50.92305222971663,-110.09364103882217,-88.53218644785284,-106.82081378298972,-91.06954720187741
-54.36210369021137,-94.60058020789256,-44.16586098496009,73.58111767806986,-6.352641694345039,-67.87725289157834,38.776460804232556,-51.39641702401423,-111.24665876603831,-88.4053056781404,-107.69167115636992,-91.68352424197246
-54.64650213761706,-94.72025312585902,-44.245758219516574,73.6910675314748,-6.530698112228492,-67.96970854633491,36.120437734345614,-51.60873979990538,-112.16241273427659,-88.34927656555647,-108.3973919107093,-91.96342507023337
-54.76822215748871,-94.6927226536427,-44.22702337647206,73.66772569915611,-6.666122104172246,-67.9479581331816,34.31468838519322,-51.56002055738827,-112.84090294353337,-88.36409911010105,-108.93797604600968,-91.90924968666013
-54.72726374977901,-94.51798879120906,-44.10965645579927,73.51109218113379,-6.758913670159927,-67.81200165211021,33.35921275682267,-51.25025929643016,-113.282129393785,-88.44977331175232,-109.3134235622565,-91.52099809124502
-54.59341629192022,-94.28282285176101,-43.95314007245179,73.29517279343236,-6.828639362624017,-67.63045971969768,33.14651202963614,-50.77905396199094,-113.59855835929193,-88.56465655727061,-109.62143637052759,-90.97745700593805
-54.260150978348975,-93.86038763597935,-43.669888011108924,72.91118095744423,-6.8522926693503905,-67.30292202069359,33.75551301044652,-50.07958519522981,-113.6264344235824,-88.76223794481575,-109.7180539553483,-90.00570220646205
-53.67537717867708,-93.18210268481198,-43.21332124111723,72.30103953548041,-6.810607132313635,-66.77522482916856,35.3243245861504,-49.019609166440205,-113.27643319236086,-89.08044621719,-109.52683525898192,-88.47230011766669
-52.80851152046489,-92.20226654383623,-42.552983443158155,71.42660362498373,-6.685626611827502,-66.01136967851699,38.0165137618078,-47.43895655101005,-112.48844319124328,-89.55130826961522,-108.99788840513247,-86.29892712408582
-51.51157320938728,-90.32405603839106,-41.06793870370166,69.91707281380513,-6.580168219906227,-64.48863686493723,41.76161279530788,-45.80559026786068,-110.54712213126913,-89.52226959368,-107.55771194012414,-82.95636869721193
-49.803765576411024,-87.42874079093963,-38.65128189603638,67.71609175753929,-6.538204107197089,-62.09724772379286,46.598365285442924,-44.29746756433451,-107.38871903660402,-88.7597499995818,-105.09034953864193,-78.43219287269858
-48.13056740666616,-84.87001306572711,-36.716507142802584,65.70129609789183,-6.352299844618756,-60.011572178824736,53.02439046276413,-41.71558639286377,-104.73656671811477,-88.56386540554195,-102.90789149415104,-74.15522284872623
-47.15677948280245,-84.71053665286126,-37.33825305111168,65.20713397182226,-5.7002003874004,-60.02156780245514,61.67803045560322,-36.152158242821315,-105.07064037335113,-90.93027841292769,-103.03772587191725,-72.29706148720834
-47.518593100285216,-88.98009202141475,-42.46449137082527,67.5408096636238,-4.24109858310203,-63.890789104064424,73.19489172457543,-25.459052076461376,-110.64434045837879,-97.87798813709469,-107.5100146087807,-74.99064607339233
-49.641890024302484,-99.08824524833108,-53.29133038868167,73.60475900322217,-1.7011777224824982,-72.84609721084644,88.07969766285532,-7.663743694272853,-122.72074595670892,-110.87978561974069,-117.79514194181866,-83.74048762920893
-53.65958326160944,-115.43554183277774,-69.8302316158697,83.66283613755604,2.038452288314147,-87.23380710375977,106.4942423395787,18.571706776983774,-141.08573532642367,-130.3700393751742,-134.44002435837592,-99.108635524487
-59.67102442737814,-137.56239898923013,-89.93240998685542,97.55522588194435,6.972420953344226,-106.53723581004851,127.84262226394458,52.422652299115725,-164.52201807041092,-156.3644042606993,-157.2976632689988,-120.70015250100732
-67.06387037946479,-162.7986387439887,-109.49258007096978,113.67636192035752,12.695427858546282,-128.36348927927793,151.11963117585947,92.30012316649663,-188.54006397604098,-186.25151085744346,-184.15139433070362,-146.21607189705355
-73.97405864132634,-185.688726828168,-124.01204406172292,128.39908082735838,18.28092215550805,-148.14181567934202,175.4075134545219,137.90366855052707,-204.41950049140178,-213.2943593886548,-209.94436920809312,-171.15562348326466
-77.83597683705739,-199.22254205271383,-128.97710999273295,136.96538129396686,22.516092583274258,-160.08652616424752,199.59856168724036,189.1191781714333,-201.47398789659564,-228.41940278790298,-227.93305742755456,-189.69919920953544
-76.26794809794774,-197.43812560408696,-121.76855094590064,135.21819069177582,24.39429103783914,-159.37554721168726,222.76327183780631,246.6562609481116,-170.84921990283874,-223.4914320706357,-232.1741443117353,-196.89793815902703
-67.5926165023975,-176.7843650556897,-102.28355248118896,120.54164596004466,23.388468741468387,-143.2575790320816,244.190162140736,311.965876184835,-107.54280717416077,-193.2005424776671,-218.8611712924112,-189.75886079993415
-50.90486303132093,-135.84393037143127,-71.92356050434137,91.76712860901898,19.40699428808057,-110.73532597071699,262.918807340835,385.78306772775977,-10.314458120354175,-135.05811145681128,-186.09910381017926,-166.8664083582862
-27.653233232502316,-77.88710810152043,-33.37835870301933,51.584855590383086,12.719776970844578,-64.29233831611964,277.74678713439425,468.7184638819308,115.61591366371067,-54.70405513298556,-137.13444992744917,-130.84249413242833
0.46217659125431965,-7.332723498919222,10.085952333336536,3.077768460149855,4.2877763801843685,-7.493530376152194,286.45904002081625,558.3024604968778,261.3528985129378,41.64769071294813,-75.72381513977234,-84.58521880574881
33.989551075594136,74.76758556105779,55.77568406075443,-54.29232098873399,-4.199321235355455,58.24182375180408,285.71030940817946,646.6143886070131,419.4796243910787,155.75960140421284,-0.7177274246050729,-26.921613246959623
74.27787787660418,168.8918731531394,102.49344113150073,-122.46752228474543,-10.8047748186209,132.62080490513927,271.74391544687205,721.9544234601271,583.7607617104277,292.22536531798596,91.00776316540305,45.15503764388495
123.17246961668025,276.8925882153053,149.95749795718075,-204.10808742925838,-14.02762433598582,216.55081612335653,241.6989815057441,773.2459938547763,751.3805449772426,456.8692857299511,203.6151059803551,135.4674918496121
182.227920502879,400.5663573799029,197.7665378361071,-301.1238779083051,-13.09105369461031,311.15735761125234,194.39190406789749,792.8556210384013,922.4086182608917,653.6145305826003,340.3361317080453,246.8907711378779
251.3023695195825,539.349607912487,245.77917902888476,-412.5386860878061,-7.922030698429808,416.21748840704277,130.22944310418097,776.2835738106733,1097.1530658894535,879.7598324115543,500.6364821365423,379.25010913083406
327.30668851509654,687.6155936385021,294.1693540172346,-530.5222125192595,1.5113663890369935,528.8253221884511,53.16112341943335,730.3277152184673,1282.4098477761509,1116.1764337163468,675.8100005720444,526.0405647363441
403.105441447,834.059266797005,343.080313945562,-641.742184382847,13.800215514865158,642.2940631759284,-32.32437983323871,661.0404514002876,1476.9822071066374,1331.79195259065,849.6386657166586,674.7585027888281
468.99365397443216,964.9074905074322,392.1475386913826,-733.3801349843434,25.156260439997823,747.2366471718756,-124.91723505250957,560.648888497708,1657.8866175991716,1499.0961208678846,1004.566170597358,811.3814007015417
514.0783656007825,1064.864239035458,440.42192832615547,-793.2847747566857,30.896377371455856,832.422857432939,-224.97297530605465,416.40543860543403,1789.5817814574366,1593.8243222613191,1122.4015249865733,921.0111115108402
530.9298875193326,1123.6545885105752,486.70453129244925,-815.5429719847816,27.0713395822022,889.4293748670088,-333.8453249602844,214.61837353856936,1837.322029052988,1606.5154955106946,1192.283559839414,994.2560321634551
517.8409821293044,1139.076396697741,529.905944164575,-802.4160065452434,11.37842810894108,915.0513573251519,-452.43415439292403,-53.997543398410926,1777.4620634369658,1545.9868113062794,1213.8226118949206,1029.7794036357154
477.27569681953355,1113.9565774011862,568.9969389910584,-760.528881562439,-16.458281483432984,909.5539136952975,-579.5261967890274,-387.2703045968774,1600.7788434055801,1430.3024618042937,1192.522593876627,1030.7781745188313
417.00338558070143,1057.4322067067733,606.8422922168538,-700.3337707400024,-54.17479814245053,878.3496044670264,-709.3299388908545,-756.874199577549,1324.8668550973234,1284.2037748143057,1139.4330859813526,1004.8010441225342
347.8410088272303,980.2211796068968,644.0265811905847,-632.229141282749,-96.09657210596833,828.2134782372896,-831.081960422156,-1114.627582310357,989.0313365671936,1131.1966351803958,1066.7945615597991,960.3594834178562
279.00767801121947,888.5380153103251,672.5118713170723,-561.9217161366032,-134.21683973850122,762.5230512007029,-932.4639259977212,-1415.8836895717432,635.6651645618385,984.2080373749404,982.5081311471204,902.8086832388749
216.5561777993098,783.6636263032597,680.567729556984,-488.53010700308914,-159.9247472521829,681.8850863042353,-1000.6916780383126,-1619.8215872486508,309.51065985195964,840.0658231698944,887.7552152392173,832.7667905787575
162.7351555514888,664.316235299204,656.5755318310803,-409.05739577488384,-167.38872533424546,585.2717185634665,-1028.047709043969,-1708.401294756848,37.37171828614737,690.9317295177525,780.8932946735622,748.9741920636816
117.59193782468355,530.7286207563375,592.2561795130459,-323.39940130819923,-154.92156495142626,472.58755865213607,-1014.393040151388,-1692.1521567003674,-177.77992849512884,536.0981957206286,662.7613666037068,652.2820148808228
79.75222406760258,385.3167145642037,485.55923945597715,-232.85486228396076,-124.20177271097236,346.0299216743906,-964.5962407382885,-1596.2037351163635,-343.2634845945522,376.99644005898244,535.4962064738384,544.9234920822832
47.87665649615701,237.3489805905083,347.4881074932273,-142.72675973275454,-81.52816256310689,214.38398175261636,-888.9078698054418,-1455.1150540612925,-470.3052392272566,220.70423906336237,405.14304353845,432.79253189860265
21.136102689475592,100.68761147269652,199.2403695360299,-60.89441352288668,-36.074594135176085,90.92893562521385,-800.3305477117665,-1303.7140705236288,-568.548347601487,78.38863690969447,280.6747408052088,324.3677603216129
-0.927675441298561,-13.427458125615885,61.58745486002772,6.434794097292979,4.265758184702463,-13.31563339076456,-709.6342019599779,-1165.0204039218552,-642.5545161939954,-40.33636160442893,170.04509405338922,226.98566999220884
-16.97121063351551,-95.59758896195308,-45.276005040857854,54.366454260574756,34.16534177396352,-89.02891877972888,-622.8123802473947,-1039.3158180168102,-684.3292795796879,-127.27994095024496,80.40181270492758,146.9375178274945
-25.953825661708834,-142.82921439787242,-111.350593371586,81.69737678528509,51.956828004003,-132.94889575576508,-541.7747718901537,-918.5910826792133,-685.4669738514312,-179.61922185471758,15.049643298991214,87.02223300070455
-29.040812382992954,-160.02519105781903,-139.76708373274596,91.54600721806946,58.68637100192154,-149.2314503847756,-467.1642693282174,-802.6348014013092,-649.3634183578124,-201.15461105574104,-27.686633210686523,45.80979839039719
-27.983775271128252,-155.80741794114147,-139.90681448012583,89.06889854629298,57.17248326133722,-145.5811756174635,-398.1512338794146,-690.613816883575,-583.5293108869919,-199.13790045800943,-52.07644570658704,19.674665036649003
-24.805795071533794,-140.4896520082766,-124.5560513335895,80.29049061019305,51.18034067645203,-131.40023360383884,-333.2885542112381,-581.8213967426127,-500.35101791057605,-183.04419322810918,-63.83445346643384,3.9323958222039437
-21.366634109936058,-123.60507452494312,-106.34013022656836,70.70076367770162,44.39396202298303,-115.45159315340561,-271.4804272844758,-476.5602946021918,-414.2050365813666,-162.3701851204578,-68.8100479338591,-6.049115370456093
-18.81414848202803,-110.99800304405653,-93.4472704460004,63.62068494961568,39.18626349520946,-103.11663405332547,-212.73148073894663,-376.5221987051809,-335.85308786357564,-143.5883827904472,-71.3301345797172,-13.595250324725384
-17.03662295936192,-101.51828857294095,-84.64784134776528,58.33552084580333,35.186989211430046,-93.34126304284928,-159.1826820955448,-285.24980020173825,-270.3209652949972,-127.43559576350435,-72.10022560884681,-18.889607979515404
-15.542480393041842,-92.08025876278771,-75.79452626009515,53.05055181676653,31.187793869924462,-83.27562582133396,-113.15049017015372,-205.93885131417483,-218.1472010583857,-112.43333123947195,-70.57105824219252,-21.224039168761465
-14.31311063153953,-82.68202635895432,-66.89030251302574,47.76562869250483,27.188555387824636,-72.93871041957482,-75.19448800816645,-139.70658456047386,-178.28786196420333,-98.80380960214188,-67.64113687563622,-21.43605611251087
-13.28483606672853,-73.31583706578749,-57.94818861659951,42.480758179365694,23.189284173437954,-62.403035591451044,-45.24051477624016,-86.63341500428578,-147.9677549013777,-86.38465794573312,-64.02996082130721,-20.361349556956156
-12.379885166068561,-63.859955714413445,-48.75488505096291,37.13215996845429,19.051219280019723,-51.68180631645009,-22.711145857532756,-45.93082357533058,-123.9945123507714,-74.82314433183728,-60.282765813683,-18.80378661095301
-11.504931262208629,-54.252712292727665,-39.24545353585927,31.68359541985592,14.713974966166461,-40.98121814529395,-6.537969354263623,-15.906322085345892,-103.58023399207923,-63.84100758529348,-56.748014698601764,-17.42694222899945
-10.557373816563995,-44.715364944589965,-29.93083104579273,26.24861933444754,10.44806916759444,-30.909133291531816,4.7076718191729015,5.831433147826829,-84.94180552974103,-53.445013112813285,-53.54726824670797,-16.59020710432469
-9.479581694060471,-35.64576929008399,-21.614023670415918,21.030203918534426,6.693612486486018,-22.257378980235444,12.399491359763488,21.697894883276604,-68.95238796693593,-44.165560624974205,-50.62487195937865,-16.28413067506699
-8.239667223397191,-27.498911500631948,-15.137507233046563,16.26655976757229,3.920353809957305,-15.738277185582774,17.6523192699442,33.638865622016965,-56.83903476478008,-36.57614521227242,-47.918048208804976,-16.386120165754164
-6.801053833298283,-20.68329273987365,-11.175696870976026,12.183223232314049,2.509151902524536,-11.80720470835513,21.442589619753562,43.21963727293041,-47.92630204085981,-30.803541716236396,-45.40242208155178,-16.843531510565754
-5.157770929905382,-15.495322253282211,-10.071479444812212,8.951458029850073,2.6548704575470765,-10.59722173663613,24.535068590344963,51.57257092873988,-41.29476754564348,-26.786634784178204,-43.038278529854324,-17.562283588008995
-3.2692950075816043,-11.969851721549276,-11.530560024673832,6.578979273968798,4.213413388510162,-11.694199851427584,27.442863316313378,59.29841380205107,-36.00130727330543,-24.22459416818583,-40.70840225493885,-18.38511969747333
-1.1976207916031854,-9.93179988859265,-14.637913749831569,4.983541861261983,6.666887212026268,-14.22705022474338,30.434341031812437,66.50032335050128,-31.316952720571862,-22.672071903913093,-38.36548539281284,-19.204074959102854
0.7756620021700655,-9.142343241945127,-18.25144497149995,4.114871732383108,9.306103037223693,-17.253545675104306,33.56926022877815,72.97650493296896,-26.915444577127346,-21.72833212986916,-36.178737122586426,-20.06910777316307
2.2711040219346614,-9.228277122096188,-21.054536493998967,3.872433713620012,11.293180255952393,-19.822797433640517,36.732337355404525,78.35012923376416,-23.11244428341888,-21.091873900718383,-34.442440000486386,-21.15310647691058
2.950334533023124,-9.91147779777748,-22.202203263352203,4.196743696047633,12.065595121006481,-21.371970730133853,39.84488823049651,82.46844704202158,-20.27861002282043,-20.60436396830937,-33.44377802509007,-22.630246375160823
2.609504196081616,-11.105512253760025,-21.592462912325573,5.097684956426747,11.520276203013964,-21.83351359693188,42.920206094664536,85.48433933807246,-18.332748897968486,-20.18977715470737,-33.3534949930945,-24.567369202570262
1.2191020528425724,-12.73117086005368,-19.506197237778906,6.532389990488809,9.823186713476389,-21.388211294947723,45.964029209042565,87.6795378697243,-17.068015657499927,-19.807831680862364,-34.190547257905564,-26.924736419598503
-0.9341571829372697,-14.62864663383516,-16.534725669424006,8.30327394291271,7.412518788618399,-20.388457657887102,49.07655529365911,89.44445146057478,-16.09238664375698,-19.395750105010848,-35.70638253630932,-29.47594960958031
-3.3106249725842645,-16.506427028853068,-13.402676108946252,10.053177402849542,4.880754246676588,-19.20153553822547,52.27320766895173,91.253294500435,-14.921787929322818,-18.829832262136733,-37.396187223186644,-31.82045098062781
-5.36949850572455,-18.0044249452003,-10.685962528346863,11.394860519083522,2.736490476569088,-18.030799812170244,55.2890458660022,93.54673328727586,-13.193358823624294,-17.94714848898093,-38.69163170062984,-33.53214438576197
-6.599412614696121,-18.69521552097649,-8.566471912314228,11.92111390610171,1.254419747805514,-16.767792975997963,57.71505240895749,96.60007892425892,-10.715916614095477,-16.52562974198463,-39.01854352981718,-34.20783706126349
-6.733818464796059,-18.283926054104086,-6.996494840006562,11.390191626256637,0.4999970444023347,-15.20826805789602,59.13887839359995,100.52874336894456,-7.474909719601783,-14.405205353507881,-38.040788837362925,-33.626056354900356
-5.807097245789919,-16.742275567268734,-5.985692045542237,9.82041318386473,0.4726851890754915,-13.312724449694542,59.25565752563307,105.35205568655147,-3.5680747593687556,-11.582811587076321,-35.750143265242514,-31.800671594498453
-4.009004424953673,-14.212551653914488,-5.482807718590266,7.384619575948818,1.0836650655292033,-11.089863190160486,57.93550924285046,110.94838822137535,0.8253295474951301,-8.148412912176354,-32.341023427363325,-28.900279460286583
-1.6282490213543497,-11.002521390157199,-5.341942091848978,4.401605865800775,2.161739620904882,-8.537625227915214,55.322472930894946,117.02100058276847,5.487824576701314,-4.295081695868248,-28.201076769641077,-25.241764047126253
1.036983827025324,-7.551599991416879,-5.445379183260229,1.2613814867418114,3.5378024839183126,-5.7847988168628035,51.903267926832996,123.14713570879758,10.216980875649824,-0.2757911909939139,-23.813159582929984,-21.21724497226296
3.787224177556709,-4.299957815028392,-5.834722192645131,-1.7199076802662603,5.14170655021735,-3.192705180507346,48.38197754501016,128.93485928173504,14.887424815251507,3.6926105911779814,-19.571719276738804,-17.15440246403341
6.6294305008323136,-1.560964087537286,-6.673563806052698,-4.397684041679895,7.028611536650715,-1.2152839112268339,45.57320600639105,134.10326976374563,19.521374338055466,7.479564625679814,-15.662406240995551,-13.22404267248612
9.64115611978741,0.5148762075514242,-8.139983861794462,-6.754692101548244,9.288751533520553,-0.233229850706266,44.03731603932465,138.53401711449442,24.183384802789078,11.040315718515558,-12.115052796352757,-9.476581847521174
12.806197097846962,1.8860412306239596,-10.316892101269332,-8.796931150354794,11.941898520249197,-0.44990136104797784,43.90951321039938,142.23753215062243,28.8703846864737,14.370488371652755,-8.936183951483144,-5.940447913872504
16.098700352569722,2.637238399054695,-13.178885866267592,-10.584901676338632,14.961162675862397,-1.8572202871609989,45.03396074461671,145.3317928671131,33.57786239638881,17.50652926395287,-6.073613032517642,-2.5962912007726118
19.511842590289234,2.9945761398557806,-16.524899770545744,-12.21627779897426,18.27799024058004,-4.066232173683602,46.89774677802234,148.05032144086908,38.36275800457952,20.557244138522037,-3.3826017659121135,0.7185247822526435
22.995792070460084,3.2800057148269843,-19.9530361305915,-13.803987076673366,21.71255856152584,-6.407551309311202,48.76648967719302,150.6542739486922,43.234403131715226,23.604369159384987,-0.7501736898057061,4.102879948446116
26.404866221446355,3.7952123816503445,-22.973976323757597,-15.443927221551348,24.958428108623593,-8.26453008816452,50.008849817650116,153.31037510106762,48.04555832620463,26.597492396535017,1.7695901964689256,7.360505142628881
29.55274902282872,4.754398763367135,-25.082100967638326,-17.175192239368698,27.65918038207019,-9.108626339037528,50.231524966866345,156.0585867882328,52.58648900520893,29.393373432339104,3.9927664076994915,10.11631404952277
32.2740821228017,6.2598475190170575,-25.956177668611417,-19.00829720801994,29.538610394743955,-8.711831117877864,49.32892703214202,158.8758960578889,56.664694961425994,31.842046791165558,5.718047465562449,11.976921926693649
34.46778275134966,8.3452702602699,-25.545814287914254,-20.969325800214392,30.473692833757013,-7.181564058812455,47.373931396467015,161.77392423434867,60.16881531391482,33.87176099412227,6.839667973235009,12.68056373454101
36.11585454384294,10.983208845285844,-23.99416984205527,-23.076032064866922,30.48542579057721,-4.796941984863224,44.57888032658775,164.789910344065,63.117172280977684,35.50432280472796,7.358741386016845,12.157178910420953
37.283330709007714,14.087253038313065,-21.656878028665233,-25.27837784770054,29.763067023271105,-1.9273051116792885,41.2576825738488,168.04842583135178,65.7712767800731,36.91830152973671,7.435519736589413,10.700048539475574
38.19052401311092,17.564117547362912,-19.03256919552223,-27.555139884804703,28.683026462031194,1.0661661288504547,37.726820408446656,171.74986148004245,68.60834531146065,38.460811077536164,7.436668852128605,8.942293133947715
39.21474703169042,21.37189540129839,-16.577563901904796,-30.026486034059417,27.716904671424345,3.947181338237442,34.1783924569736,176.07928951888607,72.12063902529735,40.53861005826275,7.8551563390064985,7.58955933591551
40.794986699349465,25.53452720859059,-14.591938798594128,-32.88106915968456,27.32468905321548,6.743821263063637,30.592863969503014,181.20786601818872,76.77451243505129,43.56407521781421,9.227366856329354,7.371066611977767
43.26566972819455,30.094308980489586,-13.191070324110115,-36.314108033124285,27.803193259442196,9.568740018945391,26.873414482824955,187.21102211515245,82.815281043906,47.7910464802635,11.918794006891403,8.711951209366816
46.77398034419275,35.049172564818946,-12.379229168616803,-40.47170163497594,29.245900490234817,12.414192119445488,23.006812823501605,194.02896219660397,90.1994676660961,53.246724046357485,16.023948471385665,11.603272108320652
51.299917771901164,40.36267898080223,-12.051612061532069,-45.40624399762055,31.57651392914522,15.272385663069144,18.99398560492409,201.52498374220522,98.7101958692183,59.8017855305834,21.43506980033635,15.790390410969394
56.63609514127165,45.97403091042361,-12.002979902428706,-51.04024488763844,34.56302924351439,18.141023869671244,14.65645592738656,209.5008594196188,107.9870644335897,67.16519880547276,27.812907095832088,20.826579592026974
62.364371079611374,51.74110497799484,-11.981919670048228,-57.09615560943257,37.79906451712759,21.015842592919398,9.988659999402444,217.73736929309598,117.60233108476496,74.94288195619902,34.645369524658236,26.159015045963315
67.95313580185939,57.422743476739925,-11.788946875472902,-63.12953778757583,40.78541980321552,23.882695461186813,5.53219480631742,226.06348409511702,127.2016578220464,82.77682472324432,41.43216724985632,31.30315585640983
72.88418586052103,62.74404992876589,-11.342405562876593,-68.61173404581587,43.08041998600311,26.725187609538807,2.0908413026500057,234.41152605385287,136.62571224721614,90.43715830613746,47.79880584283546,36.03018385407313
76.81976413938537,67.49148906166556,-10.642309441020188,-73.1523392953759,44.40896595517279,29.52823273310969,0.44037154872239626,242.77279999662096,145.844112922774,97.82762350696248,53.56453441299345,40.29264061212234
79.6441083222835,71.56708327810702,-9.69233173777684,-76.61506470190216,44.66321122552472,32.281147387351666,1.101249918625399,251.12921575548899,154.82648993384646,104.91426901643536,58.69281489822242,44.05721893678583
81.43199912388991,74.9886716896981,-8.523653049016502,-79.05654788272295,43.91397326574588,34.98264126253707,4.2048131677529454,259.48372382246816,163.59799273769386,111.73377227035326,63.27168672210246,47.390070510840815
82.48752707757922,77.92637796710187,-7.192945030194096,-80.78192777479308,42.46744455990756,37.62037477892318,9.118830253295528,267.83862040576787,172.1880609536911,118.39469482621371,67.511128186522,50.460468048469465
83.27093566524309,80.6878690519552,-5.75156250940563,-82.26379705005093,40.8017774742375,40.20971627941799,14.579971232726166,276.195786860324,180.6620578556376,125.00231646331486,71.66291125315547,53.51895250160487
84.22274465259216,83.62370388545969,-4.211673166140827,-83.94798353047463,39.376630787384784,42.8369511562737,19.32020188257775,284.5856847729774,189.17855027242695,131.5988807286294,75.91286371502974,56.823515801734175
85.68751280173456,87.07577201421736,-2.540081779805405,-86.18970026317947,38.55930892725428,45.62804264862916,22.109801484939453,293.05963075611726,197.92779900132336,138.1741544781753,80.33716988239667,60.577927705997354
87.85708497879568,91.2755748821146,-0.6939050432338263,-89.18316012782725,38.53732086845412,48.708586858078434,22.316544078139486,301.70158665762574,207.1142985419283,144.7329265805629,84.95592230288912,64.90169929536751
90.82230684559181,96.32690847053163,1.3401201214055618,-93.00587538237596,39.34459328777484,52.176024502779,20.095395396694585,310.6428439024603,216.9629683941348,151.37629943478987,89.83079124587584,69.85561195088485
94.60844753683159,102.25055351818082,3.554629047264825,-97.67201581852623,40.91343984454761,56.08900817308631,15.99591319441788,320.048229921229,227.68180217320332,158.29996335585292,95.05130913223365,75.44268133226433
99.2101302175779,109.0166606512903,5.943876156297847,-103.23038773703774,43.0813039068189,60.447520145566614,10.809324257183107,330.1059978116082,239.45163841623798,165.9229847688166,100.81819323673517,81.62367751077772
104.65094837150536,116.55088802987666,8.443685904483573,-109.74698908764731,45.693855387044096,65.17774615249027,5.370321935241009,341.04874437440594,252.38926653899398,174.78100395111142,107.39271495472258,88.31988897752262
110.99819531715912,124.74153769820623,10.889844311366687,-117.21403612801078,48.712257510385825,70.15477777167234,0.28284040095059026,353.11340484716857,266.50372965104,185.23144781768406,114.94147068197526,95.42468152410675
118.37275716961267,133.50076086609988,13.078682023429792,-125.62774493332108,52.23058350182964,75.22398209323637,-4.393175896317189,366.46463770248556,281.6907658334112,197.44889485848125,123.55277014302555,102.84472375162295
126.85219424157913,142.76308824921216,14.84252186908634,-134.92361766563408,56.36563457264674,80.27870571423591,-8.829312691170344,381.16776577944984,297.8273215204172,211.3728057599683,133.19202096671052,110.51092214292294
136.37328412561146,152.4491711710325,16.097779820387586,-144.9102916332231,61.1278924189528,85.29816333131203,-13.017713777991958,397.1873720834574,314.8360690737427,226.73182976435328,143.69305781578896,118.36126500999808
146.76990488786578,162.49437296681026,16.857153691296844,-155.35932301231696,66.44614995501979,90.31796180226956,-17.00290400796257,414.3627191512005,332.6481310877043,243.1371489922485,154.8242066249295,126.35324099367472
157.72997618870613,172.87002330849646,17.295739520341158,-166.0425405652204,72.09834068550208,95.43985634021101,-20.870706371457345,432.34407420289426,351.2333838440172,260.15154861654537,166.3292976208122,134.46747726113153
168.84131304737093,183.57901685787147,17.71745427146743,-176.77162748098272,77.73822994654893,100.81472118482543,-24.76368109611758,450.6646221375195,370.5839324212393,277.37292400567003,177.97366208788299,142.7164209110897
179.7428127022995,194.62955813101144,18.416509386375765,-187.4410876365182,83.03720612563484,106.58331668993196,-28.864646625199384,468.9293314398783,390.6646839617206,294.53978877592726,189.60277527693142,151.13757287430826
190.17794201207653,206.03968252551567,19.65130629387204,-198.0777888476623,87.71261809962289,112.84132150342248,-33.338734622228,486.8535479184775,411.4240824886401,311.64716925128505,201.21034429243264,159.77778573950673
200.0370212218586,217.8044594135754,21.54806416579231,-208.7391839542961,91.62697783412659,119.6209980036565,-38.294769926475055,504.3089705057173,432.7747187802197,328.7736315243774,212.83858709020114,168.66200696500255
209.3330436112974,229.8802053550935,24.081605493242023,-219.4201938973829,94.81484780666324,126.90620254526266,-43.78114472207744,521.2903785786402,454.58638707092905,345.89769639991937,224.4734390108706,177.779437055362
218.17341942385065,242.20897353918917,27.141289861288897,-230.11597917379368,97.41805244526404,134.63712566647882,-49.77526841594408,537.8657131838318,476.71287984211085,363.011624307891,236.1116782797062,187.09085896237502
226.7236904035417,254.6995206284082,30.554788933359305,-240.79479926675413,99.66454641373366,142.70327479450953,-56.15333288502188,554.1301764083855,499.00094056423404,380.10645502161697,247.73521410477588,196.51557860462708
235.18793448799806,267.27783823593563,34.13917680075792,-251.44158937681277,101.81829861206461,150.9766240396889,-62.71518751021904,570.1552900005445,521.3068946148869,397.1903776776644,259.3500077172512,205.9438820444484
243.76377744410092,279.95024327972715,37.76965105897034,-262.1115673468321,104.08856348170957,159.3676767263787,-69.26855215083015,585.9542546349221,543.5285192849806,414.3095147746417,271.03150451523015,215.2793118542686
252.55550529949141,292.7829399476068,41.435018296773706,-272.89535520719437,106.55232277048344,167.84036778002928,-75.65521392141454,601.4309483949401,565.6292260357841,431.52358758010905,282.8867201359244,224.45244563701135
261.6024184023663,305.85501625667894,45.17190987363574,-283.88683460118955,109.20390551941455,176.39418377527,-81.79602091312336,616.48180748085,587.6030330248941,448.88835505615134,295.02056912801436,233.43456292891915
270.94360781895375,319.2139575727706,48.97529538717754,-295.15651244837863,112.04382418287969,185.02861862641657,-87.68761760191046,631.1038735106486,609.4394033063145,466.44740922415076,307.51314142310366,242.23241553136813
280.570241248648,332.86827638296927,52.838599031461854,-306.73204947313025,115.03882084054294,193.74371131049747,-93.37345153290698,645.333025299491,631.1455228189079,484.22151739623314,320.4019009811409,250.87881641777767
290.4445314696568,346.8185126107055,56.76473217467901,-318.61723393311513,118.12911026944039,202.5581128803433,-98.92916256475837,659.2457136225967,652.7811549457892,502.2105093616801,333.6639632588758,259.42012102804256
300.4581169705507,360.96648328048104,60.73853668633819,-330.7165782627817,121.23540239074555,211.45959739910677,-104.43958714342625,672.9581527275659,674.4076830212871,520.3692605933584,347.19776740643283,267.91341546161857
310.4037212652329,375.0261909178662,64.69118339300258,-342.77106125992395,124.27854703504636,220.3393060234539,-109.96403573387761,686.5887001934097,695.9976961582051,538.5905219995038,360.8359637963158,276.4184514296385
320.0325786567646,388.5954994555668,68.51396126930922,-354.420334581082,127.20660404798218,229.01201263556368,-115.50114454148206,700.219023442065,717.4522708610912,556.724892098865,374.3655928972048,284.97137877640944
329.12655404664656,401.2882643531484,72.09033542037105,-365.32884016475055,129.99318262060206,237.27449798668522,-121.01949393379255,713.873320230934,738.6277498024101,574.6338357835384,387.6118375072947,293.591686176439
337.5321495001208,412.8204172998194,75.32125645417545,-375.26425595165165,132.62012763022267,244.9532012720665,-126.5029230681339,727.5229109599404,759.3691421066924,592.2201305196204,400.48068893302843,302.29932859982546
345.16591941985644,423.0118295636312,78.1271698208966,-384.09025789807856,135.08759539596122,251.90535062378785,-131.9271297838477,741.0829436510467,779.5304995429779,609.4182388202998,412.927237831148,311.0994984622421
352.07079633316425,431.86153663552614,80.49985862973881,-391.8341457922197,137.4210446717443,258.0522228505133,-137.34575912375476,754.5976055485153,799.1818334777054,626.3504606801853,425.05318347156935,320.0500874608647
358.3796533461864,439.51647270295143,82.44089430529857,-398.6504782278753,139.66522221965806,263.3685568728988,-142.77687476749816,767.9772742375499,818.392105842031,643.1449721646532,436.9788523581792,329.1728119022837
364.20403483927475,446.1523323178699,83.88340619276278,-404.69944055207543,141.85897292172012,267.8540268479619,-148.0311482575289,780.6596106191591,836.8553345791952,659.6029263766768,448.6077390684186,338.30507475402374
369.6314469836889,451.97281398979067,84.75203072277873,-410.14229504711875,144.02441813313817,271.5536068250276,-152.80014895194654,791.8554764221772,854.0672796792933,675.3024638751413,459.67592604992205,347.16021551693757
374.6629210093688,457.08559575505205,84.97259268790549,-415.0436461365043,146.157171841317,274.50299503609494,-156.7306583436348,800.7560635282898,869.3924829515126,689.670204651592,469.80244905211384,355.39567864947094
379.2038681978174,461.46182393039635,84.49111764568806,-419.3475255854937,148.22886146562632,276.70212830143646,-159.4865841581577,806.6810781371714,882.140222669952,702.0691324112531,478.5630177505318,362.66684933477836
383.121592801901,465.02778548755487,83.32673724511915,-422.9545585038095,150.19193965136583,278.16205444801517,-160.80796049710443,809.2096833086616,891.7281758027748,711.9075267887083,485.5546706827854,368.66504516295663
386.30915098750665,467.681948038291,81.61568185814576,-425.76397898797586,152.03797903332816,278.9042343293572,-160.56189620580335,808.3555257356784,897.7915830524107,718.7243579471988,490.4605430009069,373.1844547287287
388.6764465178694,469.3832474141527,79.64395838942073,-427.71486205664405,153.72574399883524,279.0087797854235,-158.80564089811196,804.6405707221747,900.3576346070731,722.3093460244081,493.1168149319601,376.1385098347391
390.10110619043553,470.1942900639315,77.78189337817457,-428.7831100897929,155.08251553676018,278.62731431357224,-155.79354050926668,798.9134458142835,899.8642621064191,722.7632332095864,493.54069514975345,377.52490552435575
390.4876129396089,470.25553469010265,76.42935752817357,-428.9988918046438,155.87807590332432,277.9376374103572,-151.95705939302388,792.2657408846262,897.0934665574314,720.5118214896665,491.95605253835856,377.4524298499132
389.71895443598623,469.6546718906866,75.86087588313603,-428.3539091767061,155.87394917034908,277.0645281480229,-147.67347023571347,785.4976591399918,892.6603573380416,715.9468925558322,488.5699618528788,375.9918897560783
387.60634881558144,468.30844873484966,76.14680758891882,-426.71393453115525,154.85698636231882,276.02590542838425,-143.12418578283723,778.8414255456828,886.6765274035388,709.1710165397717,483.411153766745,373.08088537521326
383.9550035778939,465.99036557776344,77.20953039708547,-423.86728918327935,152.68358626356348,274.73766736357584,-138.39256365495203,772.2142793882194,878.9441590347087,700.1596876743342,476.44301474448366,368.61923286108004
378.5838524232131,462.1604668883447,78.8062559072896,-419.4560438338267,149.3679988467302,272.9407991615626,-133.43098119250317,765.220051568971,868.6894048810773,688.6026343206786,467.49069130501266,362.4437022996726
371.316680372247,456.1188804739122,80.57866245818332,-413.0405694252531,145.0313051868734,270.258163334237,-128.10829982226096,757.2580878805384,854.8593629831321,674.0782423963601,456.317469299971,354.3754130594607
362.0342214108714,447.4370850643754,82.18414279507488,-404.32942268035913,139.79057603598721,266.3867180835596,-122.3223352946643,747.7698017806688,836.8552814136365,656.457659734705,442.8362409077945,344.3530748802723
350.75292205544065,435.9732199173013,83.36978984224515,-393.23395014536163,133.814040359729,261.13134252065265,-116.02703007137279,736.4132550491377,814.5664310046577,635.8849128579404,427.12757131204853,332.47007237465004
337.59626528247827,421.9189313930892,84.0057971351398,-379.8834070631365,127.22915011411624,254.46629809697697,-109.26163182346318,723.0772792373573,788.4120431955835,612.7708524755717,409.4405100399599,318.9402536814782
322.76321282763456,405.74288028672527,84.03703651857177,-364.58488556039356,120.08755513366668,246.52386356017087,-102.12299031036673,707.7372141845772,759.1896779125382,587.7070615876682,390.1497345017433,304.04497731684114
306.5802189945043,388.0724169627556,83.47138372290465,-347.7944926019263,112.47326162378431,237.53643874687486,-94.73518865838014,690.4736640250812,727.8886968006136,561.3562246189858,369.7148722451202,288.1400623406071
289.5867580819049,369.61358978193675,82.39275321828245,-330.12565999662274,104.5942442098758,227.81632010449357,-87.22770382537783,671.4148031836012,695.5294763716229,534.3630203995317,348.67024654417946,271.6757808340417
272.45046975970945,351.01588506295593,80.87364225708006,-312.2401517001017,96.78046439562331,217.67359616852445,-79.71052233039336,650.7228036005545,662.9691909457542,507.2380942847785,327.53600512070625,255.1244857288193
255.7087642576953,332.6856393316648,78.88324914256191,-294.6227701529224,89.35514486704051,207.30438853124951,-72.24621220899826,628.6068769098747,630.6857731849432,480.23591826202846,306.66010620797897,238.8238329949936
239.7210978783569,314.63497412557444,76.3060027892625,-277.4838190295559,82.63753867084233,196.7349988670112,-64.81896002846952,605.2464525386076,598.5558183113462,453.2487487990393,286.14868186337844,222.93119932246464
224.62635402985325,296.73206997523084,73.02212356683594,-260.84885661951466,76.80980333969183,185.92531672785753,-57.39174352420196,580.8196777149387,566.3005142459588,426.0928740195968,265.9870649246259,207.48059314043348
210.38434618981591,278.97763665300226,69.00054461061518,-244.7095250425691,71.83864554389766,174.89943185259062,-49.96452558152487,555.5708807057599,533.9300332126677,398.76958585224656,246.1817786714837,192.4703697831019
196.83303439667543,261.3511485881281,64.30084804711987,-228.98410247376705,67.5681320543963,163.69752374346808,-42.53731095306648,529.7571104595972,501.4652333943559,371.3008110583787,226.70359134332284,177.8494142294776
183.74830258219845,243.77723087369668,59.14042129076188,-213.54147760054093,63.760491033906874,152.38949097211207,-34.9874880624684,503.64841004344635,468.85699126127474,343.65239637966533,207.47418709830436,163.5361410841083
170.90313082515422,226.2034614887998,53.87960104839294,-198.2589766552701,60.12131781703283,141.10232406235582,-27.246677807077504,477.4936697555713,436.0953742908314,315.84209872170413,188.44279740777438,149.46723420267335
158.1416830826838,208.7148073451026,48.88318346003871,-183.0970474806436,56.36801659437879,130.01468247747835,-19.553896167639323,451.4589657220895,403.38867747285985,288.10964231118396,169.69242003825002,135.65420424174363
145.485242756331,191.50573792789874,44.4829851869963,-168.14824197202051,52.34437608555527,119.3353400335227,-12.31370287167556,425.61132642058874,371.08560094808854,260.8348661444443,151.4361486593225,122.21439574129454
133.02530828274212,174.8082855202956,40.8611554197978,-153.55226906425196,47.99415996350763,109.23196443960114,-5.971828610672674,399.97368791653935,339.59196877199975,234.44485718828582,133.9279257987073,109.2937189270915
120.78065814068577,158.82117535861107,38.010233804378004,-139.39270087999648,43.27946332637384,99.7847053861733,-0.908731652833012,374.5776485484166,309.3020509852013,209.34293513858847,117.37182339239007,96.98134319851306
108.78536317580256,143.69803540611974,35.8013008370599,-125.74341086645472,38.23879243247302,91.00758595124535,2.648912513479445,349.4423386920316,280.5495724529774,185.86443097602114,101.93392217877954,85.3474951387584
97.07779459731137,129.5051487658675,34.013850455288775,-112.65291582510508,33.00247362270238,82.84701582661637,4.754004654858363,324.50781261517477,253.53877520898277,164.2332457394732,87.73127825595384,74.44267788223215
85.72780425575002,116.19980732673139,32.363111720933375,-100.14744456997232,27.788000665163054,75.17873407204979,5.788189622879145,299.7523880391527,228.30709127878072,144.49707044049683,74.79541147507825,64.29008049603226
74.85983849122022,103.6624895318746,30.576065043474955,-88.25004875417835,22.83872724158482,67.84287583489277,6.329196193672033,275.3698005042097,204.7515505610918,126.50516381269426,63.0444574735493,54.87501179154606
64.62337967814528,91.70580447291104,28.49579741646994,-76.9755000611749,18.376887129516945,60.69273282036556,7.1053382718491775,251.70322803997624,182.62064980137802,109.92537822028044,52.297264432228985,46.1489259652617
55.15408746878529,80.19723172646627,26.066801588891394,-66.3528787144187,14.544781512106965,53.641888960982214,8.646955895943393,229.14581688239196,161.71459342529852,94.46175269525247,42.378691550424264,38.05854859916417
46.550133530918174,69.13252934411503,23.262144580219683,-56.43795744600902,11.397982230546404,46.668084895753964,11.092748298973675,208.04954994042055,142.01365374861962,79.99534125226,33.186614397718586,30.5611839752155
38.86766533533046,58.573562371802836,20.128388982779143,-47.29445837465573,8.92318492234699,39.808537483137115,14.364837535786137,188.68933656396985,123.56892628854985,66.49273965947395,24.654486822198123,23.61410412734267
32.126299946568906,48.67867406748701,16.811305429568165,-39.02244840133335,7.048065370601762,33.17946382417176,18.31170462254704,171.22446741860222,106.55129880123786,54.078380372599895,16.78939232924222,17.191702851380796
26.280427870255153,39.64518977742409,13.527655066145599,-31.71352029377158,5.652667311850564,26.95307151387715,22.572494930884204,155.6323700598914,91.1657996979975,42.95696994086484,9.637931107413351,11.262303519557463
21.199246142738048,31.58530288491602,10.472828006691998,-25.36436500574564,4.597743431391791,21.281257205904694,26.471675943126684,141.68357933136576,77.4736183717614,33.219889753917414,3.206309035655977,5.763426289981908
16.70126605817677,24.509000851525343,7.788930849568715,-19.890258396540958,3.76742809942607,16.267136799847776,29.32823203595217,128.9671342357251,65.38496929293797,24.842134744679242,-2.5281407042248247,0.629372453515316
12.623359358922244,18.341295320657082,5.533853605214972,-15.161154647118565,3.081900891584155,11.942644878989995,30.6153963559118,117.10964684700957,54.697868507548264,17.66613598180902,-7.633721584536033,-4.196133505337002
8.856548899120753,12.97290040361986,3.6961526881386817,-11.038520723919646,2.4742234520872444,8.282892568635816,29.98424080218865,105.91447859362415,45.17081764931936,11.43858613872544,-12.21773941610445,-8.75007968133741
5.3361808654863125,8.274598499130661,2.2161070325346373,-7.386514136382175,1.8986461539852826,5.220596082506745,27.38929578064017,95.2740819607443,36.545539045177065,5.866039989060482,-16.390560318939606,-13.032852488910976
2.0780984961329523,4.146090237045428,1.0011951570959354,-4.1127864982681785,1.3320616900145978,2.6618447518699213,23.303374060511487,85.21066795876322,28.61821297842107,0.6662825798684935,-20.225036162497418,-16.975703142911698
-0.8459730030190258,0.5186510256171459,-0.04865881047408038,-1.168131365588124,0.7694378301503093,0.503053284264297,18.64665154622344,75.83447796157634,21.23185530990486,-4.397975904163104,-23.76033316079338,-20.445946816547803
-3.3831705027278076,-2.673154621699723,-1.0082626420044107,1.4827416911230102,0.21529172110240324,-1.3490528655620437,14.358540309711316,67.2301095481289,14.246687571438088,-9.479900054732752,-27.029448953044266,-23.316211074523835
-5.49869384602971,-5.44861908632447,-1.8948565425926063,3.832620824819969,-0.32234546445761225,-2.9476250805719246,11.319676021905252,59.437927421970016,7.621334404208028,-14.576478730449708,-30.02407205185864,-25.483316550664313
-7.2107472976767895,-7.8382917467315565,-2.7004615728765202,5.889128554513263,-0.8413534432929737,-4.327748573751705,10.003266756482844,52.41300525642873,1.333174483061157,-19.636514046121192,-32.74272984674826,-26.920770323651595
-8.59440116665246,-9.938098406681092,-3.441678909226539,7.718462679264121,-1.3431897520276834,-5.544647447265561,10.362574558597771,46.0389574713663,-4.694512275720626,-24.66965983298269,-35.230243576349494,-27.698585320541497
-9.744302684177455,-11.851113829754468,-4.135901195557381,9.393787314897054,-1.828315426530935,-6.652937829640905,12.06491190239467,40.16854527219948,-10.498372014435517,-29.6621162422025,-37.52709219541248,-27.952714346117318
-10.753239911808123,-13.671486535304211,-4.800849706240115,10.978847096372192,-2.3073963969072793,-7.708076560633344,14.564309271956517,34.68518177517035,-16.010777347075418,-34.65690836047543,-39.63919248032107,-27.89118890898044
-11.694959839272997,-15.470196287642466,-5.461329350067899,12.518167861535403,-2.7810034521153284,-8.767099950071497,17.253651059067124,29.458466668114852,-21.07865717785171,-39.61394801113238,-41.540528551090574,-27.756692096799725
-12.611209153697928,-17.28271537987166,-6.151252679797835,14.033239356776903,-3.21470472504825,-9.879045158220833,19.69348451242331,24.30662190982548,-25.56847171359186,-44.24457730699578,-43.20678888850125,-27.73788579080474
-13.487059640583539,-19.092133068865223,-6.906953472976966,15.507199350895462,-3.556458059914803,-11.078478453313437,21.80303611123054,19.104525503644254,-29.35836819569522,-48.145390293844684,-44.601726524955666,-27.928632516574908
-14.297168489618343,-20.872076324551017,-7.757145413741455,16.919832185794803,-3.7554127175890244,-12.385142272410576,23.686303475222303,13.78480835802111,-32.413188932827325,-50.93384036214502,-45.714562262264735,-28.345439515243015
-15.053144678253375,-22.625700127118762,-8.715641144477559,18.279489947302864,-3.776880642669312,-13.8045893221406,25.346595452629117,8.320780582664156,-34.8202757179497,-52.347862671654184,-46.58633038706466,-28.97773853493254
-15.770773661026396,-24.358049249229225,-9.781312959767092,19.598358808852936,-3.610059129034198,-15.326047332898725,26.812709220654142,2.8009919617434207,-36.72300918522342,-52.3022652848731,-47.276029738485704,-29.778985100138016
-16.465603992848628,-26.082484968137578,-10.940452420743895,20.891612924684523,-3.2855086633462633,-16.929536819466193,28.14871059150755,-2.4435780993590015,-38.29544375082878,-51.00034584340392,-47.85011018640307,-30.680823892215358
-17.15420741183334,-27.81084168981579,-12.160859129016899,22.173086758450154,-2.8747281649866636,-18.58046878217783,29.390538570494755,-6.911980240682169,-39.708664004851016,-48.95393630016861,-48.36964497601912,-31.60970605671355
-17.854940917875865,-29.535226599051384,-13.389724500109878,23.447864893677433,-2.461973659878822,-20.2246109749085,30.475113553266056,-10.213620932434424,-41.08229812400168,-46.79875660796915,-48.87365188720469,-32.50831103034898
-18.580249109678334,-31.232323070093116,-14.56595679853126,24.709014676012885,-2.137954839017766,-21.804111769269184,31.259520255636744,-12.08005368927661,-42.43405450354658,-45.217772170655735,-49.36121082342015,-33.36306416791285
-19.338287185944864,-32.87080526202044,-15.636707305293385,25.944069115095772,-1.9630314248761351,-23.26778573547199,31.59566995824389,-12.47064925871382,-43.737110832596954,-44.65678276741073,-49.81670709624177,-34.180098624131915
-20.136465457488157,-34.418975619739285,-16.56358563727008,27.142546501051584,-1.9502100425488607,-24.571700541052905,31.403947093318493,-11.588387039495501,-44.9963254317845,-45.189694791505644,-50.23992960055239,-34.947590169173964
-20.975943212508355,-35.84812359105308,-17.321789077468566,28.29274487272596,-2.086773167253341,-25.68410620163877,30.668511631911315,-9.766776263968495,-46.20464686919877,-46.65957892243205,-50.62801096492149,-35.6565704573859
-21.862789841225094,-37.230400989265036,-17.964993113444507,29.3990937280214,-2.328624110741657,-26.652261247797924,29.440209166774366,-7.413242783219175,-47.43052524483028,-48.66426133917139,-51.01137083454796,-36.370153552602915
-22.788927753384996,-38.60476725403714,-18.532170797583603,30.460338393806524,-2.6273701158997937,-27.50953083116474,27.888935824657892,-4.92033138622719,-48.68837048588466,-50.664709843870696,-51.39967172661909,-37.12031992424863
-23.70662919881397,-39.78418979818889,-18.913023236693334,31.435654683543362,-2.9698513668690794,-28.141804221794246,26.308311364680776,-2.545101788980901,-49.766687087689206,-52.22849406570185,-51.70930490042883,-37.763266831893816
-24.546016982289075,-40.47975285668508,-18.92634636641378,32.265200644331344,-3.379308257925004,-28.36927846724211,25.04568544826543,-0.3004586269635183,-50.35460554464407,-53.150751327354556,-51.814165307067924,-38.06974530504567
-25.236404803274127,-40.38959534214155,-18.378175053665473,32.88433754628568,-3.8945334685795387,-28.002054657195913,24.37425777010867,1.8987084063755901,-50.14604545172915,-53.43190791678808,-51.588388673073496,-37.80152730881218
-25.7212163146487,-39.27489042236084,-17.11707806546474,33.235237054583195,-4.539639929382247,-26.892452627735565,24.422092824037463,4.0467247261840384,-48.92007791668766,-53.137405437476446,-50.94047894691448,-36.77673843968114
-25.964072684011626,-37.040121026429915,-15.087886293142219,33.28063065086644,-5.323541283484701,-24.99182283384198,25.192383155213975,6.147693341870763,-46.60960160274408,-52.41131695051172,-49.84140088866752,-34.9237490488008
-25.991740654870227,-33.814026242444015,-12.376381649835821,33.042445983166544,-6.267428382919206,-22.403229782156814,26.677839796842818,8.27774297267024,-43.426928269622294,-51.44405299791197,-48.36746019453494,-32.35579959170536
-25.85219052569846,-30.030536277845385,-9.279188202108344,32.573561913116464,-7.338380249340844,-19.44227192133576,28.648938186517626,10.476392026212125,-39.8689375954018,-50.42557121301343,-46.715606587975344,-29.409572992608446
-25.537316409763662,-26.337701713209754,-6.26357760391511,31.896110613169185,-8.378529199881996,-16.57857781619714,30.455794197163414,12.594757113463857,-36.51196144181631,-49.48361024044516,-45.13876611541491,-26.54420427040668
-25.019541401659808,-23.49795835093755,-3.886855120292239,31.029192343929026,-9.164428257239706,-14.360574785092012,31.297400290928636,14.376438315113774,-33.96268968926597,-48.62163265455001,-43.91509953233981,-24.283024821588242
-24.251178187521873,-22.066541573125505,-2.5675333186281932,29.971006403935462,-9.489475197568026,-13.190095873086648,30.49391626047327,15.549641531823,-32.59822440790958,-47.79156410839096,-43.231162578068506,-22.989106161721793
-23.174436653329394,-22.205521899053565,-2.4497724568263948,28.694754890202603,-9.224106434776331,-13.191557367765654,27.645765062881765,15.909386753803119,-32.43789367745558,-46.994937172388745,-43.12036218930916,-22.741303918088306
-21.764171814982546,-23.805029701099556,-3.4775257566652726,27.19047767419761,-8.328998141473676,-14.292147063626999,22.709662402858157,15.359945237400098,-33.29360386874032,-46.22919838145299,-43.518348191493715,-23.43527575054486
-19.992834728394882,-26.48154110530959,-5.4070507703618205,25.438636344447332,-6.85240736304695,-16.229119783758506,16.16923077373758,14.014968133644288,-34.78062421343384,-45.45432057204471,-44.25535979188771,-24.78273190271102
-17.958588395038532,-29.591808924033103,-7.775571525875421,23.510852131386855,-5.012863875572293,-18.54087524174247,9.072487711402573,12.189127601563087,-36.41829564967884,-44.64720838374069,-45.09824192556334,-26.351816842274275
-15.9998048356465,-32.41064698640366,-9.983275064862028,21.66244197269043,-3.218157334643365,-20.671418635296504,2.684587600599116,10.24758213754285,-37.82938091205142,-43.87979108093623,-45.84836877392081,-27.71321892714286
-14.584142580923071,-34.33399532394833,-11.469543014674855,20.251278938592804,-1.956232305348749,-22.131151416189823,-1.7099615750994417,8.596332298449852,-38.85905291984818,-43.27633077853716,-46.39021096201395,-28.563147992521863
-14.125343172661815,-35.01940231217304,-11.867330021441376,19.597979773940096,-1.6092481996802235,-22.619232643682608,-3.2948069054782536,7.500264807709755,-39.51935007589782,-42.96926194151456,-46.691063534160094,-28.766521133483366
-14.849600859392012,-34.35711882280157,-11.024371472318307,19.87991131777744,-2.3479519047232316,-22.019764597538597,-1.9298086348917423,6.991143973071303,-39.83328359686857,-43.05996665217481,-46.74913871276112,-28.294960954105136
-16.789225964808793,-32.47037842248028,-9.006982032515225,21.126710110574095,-4.154076359015562,-20.406276676684683,2.0618437342145626,6.991187183655711,-39.87546808522529,-43.59486826853299,-46.59460351265261,-27.23684961990557
-19.726916774938218,-29.725188081571105,-6.092444868862003,23.182114632268167,-6.796740951048378,-18.033771551667996,7.8541568720957,7.325844774108191,-39.75455492054061,-44.54907223672217,-46.27984622672102,-25.798014648634762
-23.140617816772647,-26.711551454343862,-2.826839638348247,25.65541056407892,-9.79489542385818,-15.372178733461624,14.318557692893592,7.815509825335539,-39.56887050840305,-45.77625812754377,-45.850666764874404,-24.272761545248613
-26.324900646804963,-24.071244515853323,0.060683944586344296,28.002146989769244,-12.523633542503376,-13.020492534253208,20.49326616298822,8.392492783666967,-39.358311070722266,-47.01153528524537,-45.317402941615,-22.944319609424838
-28.53328524517383,-22.326782363406892,1.8669683939970128,29.63644418093645,-14.365835489528763,-11.53366560483937,25.810136440482893,9.13789260564954,-39.07808738681888,-47.925508367880866,-44.642554090615704,-22.005322997767962
-29.2539286335832,-21.763571590079664,2.127054514723568,30.14694021813648,-14.914956524191439,-11.267422532173896,30.09493780879893,10.18392998294621,-38.66203904656686,-48.26038167823026,-43.779913743602265,-21.53631842691584
-28.333771323943438,-22.45803398589669,0.6718273615297221,29.39666062759079,-14.041397849927307,-12.351918905480488,33.32154752245151,11.576783262946265,-38.10195210988968,-47.913618028374,-42.723156971312164,-21.551061893928363
-25.894359834759598,-24.28221457861582,-2.3769583117536968,27.461070985789775,-11.853016481276427,-14.690074229576567,35.613367754829596,13.311311236146139,-37.415616596787004,-46.902010598053494,-41.48846959565708,-21.987726692173055
-22.355251914845212,-26.874717049202445,-6.486503404861651,24.628775762489568,-8.734339632963383,-17.87755215349216,37.224212398561576,15.342398214699642,-36.66457551330495,-45.35247881363921,-40.12631335639526,-22.718530025435484
-18.39262336369393,-29.706745084604336,-10.826751872327804,21.40277199502998,-5.303201221064228,-21.281067202100985,38.35142682043261,17.50519185266785,-35.94842553908711,-43.540686937708415,-38.71573131065361,-23.55660086755006
-14.7166210768155,-32.286151388978396,-14.661896023877489,18.375584519404583,-2.187887693614357,-24.31863002418686,38.941480765102824,19.47691832939745,-35.362841677040706,-41.8608603117309,-37.33616858926325,-24.301474452472576
-11.892998937069933,-34.264549058581906,-17.454219330107662,16.06711281466778,0.11704048750016227,-26.551213613392065,38.68114776567927,20.86879248963669,-34.98913658334095,-40.7098160208252,-36.06091934739925,-24.802614677279507
-10.218920731966136,-35.48705123892796,-18.99823551353802,14.795024375218418,1.3678363057979368,-27.788496137206494,37.230028095329544,21.370777540252675,-34.867192636862455,-40.364285710120384,-34.93808346977221,-24.980107787801444
-9.767305376926743,-35.92385223138808,-19.373920098239978,14.680523677006022,1.54018062956402,-28.053774143064857,34.48938780248682,20.843472141450547,-34.98771939323706,-40.94264913340248,-33.98668784979782,-24.80082887674098
-10.404577396358945,-35.65255339745272,-18.837861829781104,15.652327376055837,0.7961967400251524,-27.510781155274344,30.541339307330418,19.31180640689854,-35.30990414588814,-42.4063333573622,-33.20981468742593,-24.292887588990197
-11.826973581113634,-34.88652736105723,-17.756323589050226,17.484290573293038,-0.5064452322731086,-26.437043175495546,25.76341189844061,17.05470547290679,-35.766950105880824,-44.53118405168789,-32.59552542658457,-23.532329434239273
-13.558260102936401,-33.84533674983504,-16.494133494625203,19.73685135629421,-1.8943983754397777,-25.11797474392006,20.80089952317394,14.551361223062486,-36.28040770105508,-46.90478552134118,-32.13616576885852,-22.67026349631942
-15.041711720652529,-32.56792540160677,-15.277303717375617,21.78816919404653,-2.9748003698250614,-23.704995162150226,16.304111282956,12.249859441064473,-36.78661016082333,-49.04899567351731,-31.84607686815434,-21.926609380080208
-15.825908857450486,-30.92145200912637,-14.070364231825806,23.034607187371876,-3.5409196085520307,-22.148431393840838,12.854080791657907,10.518923650861325,-37.25778091090433,-50.527844213977914,-31.759171309819067,-21.517498905618595
-15.644956633177571,-28.711190795385846,-12.736535103404094,23.054085973311885,-3.561193547946459,-20.318897804922926,10.764223052794478,9.528026442862028,-37.690265605699096,-51.07960569687657,-31.90747639973597,-21.592258557990135
-14.373536663671985,-25.828530545815738,-11.26721964070748,21.63890863256529,-3.068054870247579,-18.183704796051643,10.015485356447243,9.236300016282257,-38.07757344375932,-50.6420446169941,-32.29568742049287,-22.214465934478994
-12.069997994649384,-22.254273689799447,-9.6708556816302,18.822597909982505,-2.1723662486974717,-15.7483942029221,10.377099356994222,9.484392315440346,-38.4211666698684,-49.317726488471635,-32.9045026026979,-23.35213062956018
-8.96371744517819,-17.975649973825057,-7.87365091429092,14.871361665550467,-1.0441768597329428,-12.96356135296719,11.447362345594229,10.037371753180196,-38.77088078113411,-47.38673325492255,-33.67888691200187,-24.824100369662574
-5.518000145315455,-13.242561175349692,-5.886624234348346,10.38704778488136,0.1302880462653775,-9.920599901973219,12.725814291805364,10.653696917659545,-39.15656777820368,-45.26639390848959,-34.531667028642005,-26.33874087955246
-2.3786858358653262,-8.801080056504361,-4.028839786573371,6.253360449431057,1.2166087289342613,-7.077286161864777,13.773556760257634,11.174299014979624,-39.492700158518346,-43.361339591649084,-35.372383536887355,-27.640972649788637
-0.188210263806468,-5.639557793234417,-2.7691504825270385,3.3899062224718364,2.1853769755280155,-5.0697113724882,14.373873579692372,11.605947139327327,-39.63537493435069,-41.960433539467886,-36.11701127651031,-28.538752124371968
0.6092101190643007,-4.619837831425684,-2.5647174347832333,2.4520027487651532,3.06389942700298,-4.484672018288165,14.486980332014355,12.025911345939676,-39.4385458668894,-41.19051055283944,-36.71066757211611,-28.960713143515477
-0.16927500631027215,-6.217085490705358,-3.7349842262792663,3.7096812251766096,3.8523921851428895,-5.690069369467892,14.095221525631132,12.437227770009486,-38.80460934851908,-41.06757341341017,-37.1337243345688,-28.952099731015096
-2.446577322525627,-10.491063516021313,-6.390190465504929,7.067079157211992,4.560241247245358,-8.777516115821527,13.27578413194533,12.839187604979088,-37.715733498964255,-41.49964097062184,-37.38865511768108,-28.62349703892187
-5.832137478082586,-16.90440897926419,-10.295260044376846,11.985934746634484,5.215255080220231,-13.413063204141963,12.21291176372506,13.22872041802475,-36.31573085013042,-42.30714564648042,-37.53212548098054,-28.11997785685253
-9.627051162435237,-24.291909010331437,-14.834002708899789,17.493979903467334,5.833873293418947,-18.80141850827522,11.167659685268518,13.586947258834698,-34.8911144266076,-43.23318043824747,-37.60716011524619,-27.58298051312977
-13.04668942520766,-31.262049240001943,-19.2316369567543,22.496733757072434,6.383436011233243,-23.96444767752746,10.376676560588749,13.868328583095717,-33.72143705049348,-44.0041522579877,-37.5516391152878,-27.10487027500767
-15.39427679866094,-36.4242715071523,-22.648119862193198,26.017559994416843,6.797151610804576,-27.880504366994955,9.996004546772383,14.010574146799627,-33.07189887660934,-44.425772877338204,-37.24314225814942,-26.676190639538618
-16.26916856084972,-38.90589197081135,-24.52723353068359,27.491258102816573,7.00578287193548,-29.88857295285743,10.081332790359738,13.957428412857553,-33.079244214706705,-44.40385871821945,-36.55536254033177,-26.247655417685564
-15.600085113581372,-38.56426508920413,-24.779835970746717,26.811833620140533,6.969115890599824,-29.8811734564174,10.624160079103603,13.676070049983537,-33.69900483251513,-43.90166539701386,-35.41590318868475,-25.819132877759785
-13.584937563515268,-35.757689039641264,-23.60678556464336,24.245063383143133,6.679308293505528,-28.112233169150386,11.555197719508215,13.154462419075571,-34.79599697038793,-42.96955317328229,-33.83004977453493,-25.390622652608272
-10.742494320589685,-31.381045804864698,-21.49410195292512,20.477865783650486,6.16891969156768,-25.215472037602012,12.755602152343272,12.407529531919863,-36.177233430986234,-41.77700647993606,-31.965116934551588,-24.927297027376426
-7.789656650993493,-26.670563479969132,-19.1182912068125,16.47652235616806,5.532831897176948,-22.065586987443567,14.07787575312068,11.477223427280478,-37.6404587086181,-40.583532899444435,-30.121647544522602,-24.408510695286168
-5.311328807960308,-22.686059580206347,-17.091047980113217,13.077428063023035,4.91919221203807,-19.416015642048023,15.38877550558027,10.419150288074889,-39.04152217869341,-39.62325146531566,-28.56897828133151,-23.905698585266236
-3.636544357637831,-20.034265781519935,-15.777420093301771,10.78971062218261,4.497846501349159,-17.695812738625136,16.612106760370807,9.294299092252913,-40.36234237738245,-39.066461160965446,-27.54303156885635,-23.537765337329347
-2.820889157947022,-18.85212968482665,-15.28567708895207,9.7516016239897,4.395662815265496,-17.00243586955048,17.717131373659868,8.147905920744961,-41.644840043711156,-38.97890483158426,-27.14862618019015,-23.432164894264133
-2.780556995918232,-19.069142253880273,-15.61846125678494,9.899193269327952,4.659224237095259,-17.294786579679112,18.67525003952869,7.001931787319336,-42.883973339885415,-39.3356138159088,-27.319485007008552,-23.69199546690652
-3.3155374949838006,-20.391697830837074,-16.640245309010425,10.980689419431656,5.270836623457399,-18.374854718135794,19.47887618804816,5.864929825029321,-44.08193677754389,-40.04851761072496,-27.907189880473197,-24.369114340282522
-4.1646903797063715,-22.350354936457734,-18.08316813303827,12.59626780738472,6.1351519327809,-19.92070132039271,20.265908091978417,4.737250461828808,-45.30236877896823,-40.985461065210984,-28.721059891887307,-25.437451011646772
-5.073931216995334,-24.417966284072463,-19.606882234797013,14.298619179245179,7.090613273713643,-21.565628150473458,21.132821965953553,3.6100752511538303,-46.58639281352225,-41.99709989212079,-29.577060860924576,-26.75706988694128
-5.877426500859656,-26.209082260993455,-20.930218290988705,15.763285345592521,7.967507932595254,-23.032731100475758,21.842831220628796,2.465314087743536,-47.82250220219612,-42.96246014693588,-30.35588297715003,-28.097806528528054
-6.591800272048204,-27.62916293584749,-21.913335304261636,16.914909107987114,8.620591273956961,-24.239696852604084,21.98483220759772,1.2878814841133135,-48.81679981059824,-43.83804632262127,-31.070188219108786,-29.17882206798504
-7.305917286766999,-28.754302299204937,-22.53381326435374,17.823817552221954,8.965318413345813,-25.221553614756886,21.117996496419437,0.06958512109122239,-49.36187650111788,-44.62775473091369,-31.78430388655852,-29.790326424023988
-8.020040997624164,-29.60229273979712,-22.78922052414964,18.51118567940648,8.974298912807171,-25.976368926756095,18.903741151534632,-1.1946724485751474,-49.29870185845357,-45.321366864230185,-32.4984191068188,-29.87043823095064
-8.734169345927512,-30.22683728519587,-22.721890673998132,19.029335219439417,8.662347782436882,-26.528957587129298,15.203702279146455,-2.501999836793402,-48.55748713743196,-45.92614361311553,-33.21253337384496,-29.461186194810125
-9.451683096123816,-30.716414560880366,-22.436355307909253,19.451058532055868,8.106625368965979,-26.956777529754618,10.106351262400494,-3.8392333602605504,-47.18045644677659,-46.42427047775254,-33.91848048625707,-28.73778475909603
-10.174648566191536,-31.14735945765642,-22.02678584439127,19.84427284650701,7.388614635357044,-27.319246172265593,4.1663145132897625,-5.178911053790216,-45.410595472982095,-46.831610435289804,-34.61064448975412,-27.97123886919053
-10.896137608775462,-31.524089525923046,-21.478538435876544,20.241003962817558,6.509819974734455,-27.559837740668627,-1.5311875573661382,-6.48385896554646,-43.6966515040549,-47.28022908264029,-35.30491605182033,-27.402657890955197
-11.604542694110933,-31.77532986620281,-20.688288387733337,20.618588143090165,5.410419723772975,-27.541478558197014,-5.62856439416646,-7.714816660705765,-42.596081204454094,-47.948075166798844,-36.02934366132558,-27.19929285471426
-12.28734859972792,-31.811024178545267,-19.533897323643032,20.93580551307059,4.012853535105023,-27.11495720607809,-7.039621870429983,-8.844226912169688,-42.548553110091234,-49.00258147648674,-36.81581788628955,-27.420000893689576
-12.934326952899937,-31.591199067410344,-17.95742812188655,21.18185609923421,2.280191336181815,-26.19113720193718,-5.307416336361712,-9.863542866942225,-43.72933528840076,-50.56310364923502,-37.69287324921788,-28.042610617032096
-13.540155168468118,-31.111440902319373,-15.969217616115202,21.35557382281877,0.22903955921719898,-24.753972642755798,-0.49984901068273757,-10.779705746928812,-46.10500209605016,-52.666428812314734,-38.67960808821226,-28.988648442445083
-14.062287404896779,-30.366500755229936,-13.685410810896428,21.41393705856899,-2.019816462984636,-22.875846611273573,6.649880971499442,-11.618707872119558,-49.39897561238831,-55.2397956112618,-39.76773890942695,-30.13143244749881
-14.490680856290055,-29.441950562879356,-11.355467217576006,21.357753670441525,-4.240740434852341,-20.782458262978707,14.769478772772345,-12.42133354397447,-53.09042737289201,-58.047497256327006,-40.93239140941114,-31.346252097945126
-14.944873703532721,-28.604810995013395,-9.298951423192193,21.348513465914948,-6.196430870271797,-18.845067527673564,22.328064872943287,-13.226698825528729,-56.570888646132516,-60.72023600278226,-42.161210580141415,-32.57712462306836
-15.605531481762227,-28.2027018065055,-7.855406889335427,21.62179572745481,-7.656471152760787,-17.496172098964962,27.94041257543722,-14.064852293840886,-59.282130081144714,-62.82916558434499,-43.44181259103789,-33.85709253121286
-16.647103403660367,-28.535890618282792,-7.256813966505433,22.401990430327714,-8.48683713570881,-17.0628842894007,30.799634640470686,-14.950367462402937,-60.88282919780613,-64.05425682356326,-44.771622479644975,-35.25046948627187
-18.18426081346297,-29.768434326666465,-7.5556308187005925,23.83624747398062,-8.69719817132136,-17.66400159998784,30.76325519557213,-15.885291204522218,-61.27797962182376,-64.2848114386943,-46.16240490947803,-36.77174253246358
-20.239792880956884,-31.90908166444933,-8.675003051084786,25.955499954185143,-8.38377704438426,-19.24571862270568,28.186902001472845,-16.862413768980332,-60.57396921165309,-63.570449780446324,-47.61985606704093,-38.408241820605326
-22.670659475103093,-34.70474007861412,-10.379988927723389,28.57328215450252,-7.71722516735008,-21.511434566347816,23.91129151604582,-17.86855252297937,-59.041364504028024,-62.14719496736325,-49.18120828670362,-40.11971350142721
-25.17188842657015,-37.678774985510245,-12.33948226760549,31.30528634924667,-6.9090904455079,-23.98347446734533,19.12820009997631,-18.887788560266927,-57.142089511387894,-60.418646025837916,-50.836051573847726,-41.80448561029516
-27.411486676615823,-40.3668593761613,-14.280711289167812,33.76096108425736,-6.139674725615805,-26.232695828643045,14.965088276372626,-19.905105983652902,-55.46129422027661,-58.81570942665621,-52.4206300024598,-43.29008617727959
-29.05416380778297,-42.350906215615396,-16.0331791557619,35.561386220391796,-5.499163576279898,-27.935732633718544,12.154529518173149,-20.912767209934827,-54.50809555944761,-57.69863474539943,-53.6860474455043,-44.37416558973382
-29.894775538117756,-43.4115157800079,-17.538734822406695,36.49280634122624,-5.0060138550934425,-28.957301097661002,10.976410007888262,-21.907034505158663,-54.59655445312819,-57.26271229130907,-54.3887611078826,-44.895893628312024
-29.92537636126508,-43.57735520766073,-18.790268521910548,36.57841968793218,-4.67234920051942,-29.32767999638918,11.48921003139003,-22.880267734408335,-55.85805397902186,-57.54523966557008,-54.36464790954324,-44.78222338911337
-29.24663384021187,-43.00631574354884,-19.810627761595242,35.961452691453815,-4.4790785624763885,-29.174258485842984,13.474536915728095,-23.825134578622965,-58.20188653437799,-58.45269618266593,-53.55089657880126,-44.038794046972725
-28.054127484281707,-41.93208598088313,-20.599542266540084,34.86418777261679,-4.417973672914741,-28.668152762630598,16.534883451087808,-24.761553474118045,-61.222848022960534,-59.75261187223168,-52.04128247459903,-42.77813153788793
-26.574968667669964,-40.597520004670514,-21.121070639956088,33.524684607406016,-4.44483161797325,-27.975887636665448,20.031359635629997,-25.705078034992766,-64.25969066824291,-61.125895971456885,-50.1087176646306,-41.20278177922182
-24.96684103910775,-39.176402011478785,-21.34335552230914,32.1133928246536,-4.416640009712864,-27.21645235564847,23.121398850680634,-26.602496517862164,-66.69155057145326,-62.300252181278665,-48.113979632294104,-39.52056642310072
-23.264279177887147,-37.67863396322173,-21.20006972369447,30.65081057297175,-4.169058711559046,-26.381255290045374,25.08720861394795,-27.35836299555376,-68.03354412511908,-63.11850191620306,-46.45530035322554,-37.91546664210546
-21.432440277474598,-36.043285016068694,-20.65065530577158,29.08640324900898,-3.5629264280250936,-25.41621822470097,25.483807854992847,-27.85797979171548,-68.07438365027156,-63.539506061589236,-45.40628483759974,-36.49476450237307
-19.474574447514897,-34.294217737544386,-19.74952909723652,27.436303365837375,-2.50482821102014,-24.34987034382675,24.10293167103555,-27.98805469232684,-66.87243957702958,-63.565610731838206,-45.027783857171926,-35.284750705796796
-17.400909732896253,-32.45881829552127,-18.584596760101704,25.717697131145542,-0.9857858068153291,-23.216918384981454,21.083677721531785,-27.656400707230205,-64.66629083152293,-63.247004605706934,-45.24511384534799,-34.263534453443754
-15.187505954090739,-30.54811024709852,-17.26290734441136,23.924097232715212,0.8578191133919972,-22.052407930219488,17.138481749798302,-26.82166251223316,-61.83879016845276,-62.66199364902968,-45.83698109468605,-33.331692168161226
-12.876578512174092,-28.58632674081855,-15.887900984467706,22.072599724460815,2.746356450183157,-20.88550365665742,13.411208720526702,-25.493861550174188,-58.82988140870293,-61.893218407672066,-46.489609186717644,-32.40205367551698
-10.695560798512815,-26.650621473178035,-14.526906435559795,20.265222774559334,4.374701706267842,-19.732629263419767,10.869067114941572,-23.71185794012672,-55.97752536223379,-60.99995459109232,-46.9344169115966,-31.52836843861087
-8.966384963017845,-24.8368035251915,-13.18328863771967,18.64359315242291,5.4395915196737405,-18.589966016999824,10.221437505080758,-21.561211328669742,-53.394656267522805,-59.98269050788895,-47.01383252230153,-30.868187357619263
-7.984992316300122,-23.23219474162579,-11.831815944511618,17.339853264998055,5.754869572465395,-17.447341713996593,11.700144731392356,-19.122170633529095,-51.048752416518255,-58.81584896295226,-46.68624362643095,-30.599666978112054
-7.923033492223112,-21.895526614165647,-10.470591049412178,16.43626980370027,5.30749661038044,-16.30472097502843,15.05942810297529,-16.43064940014301,-48.937430862799374,-57.50433069206065,-45.954920868200134,-30.82470854706071
-8.803469157901418,-20.83956340964869,-9.094428959768265,15.946759056486371,4.184443431364343,-15.162103997352006,19.794487980690974,-13.523663239242524,-47.01644151730761,-56.05367006157667,-44.86743419673985,-31.554243279120783
-10.382961924444317,-20.1126451406235,-7.851138792320853,15.80453897159714,2.579306258699944,-14.148588322869273,25.271013543571826,-10.443485645504552,-45.2193282644821,-54.48145338519589,-43.487151379046736,-32.63514648297132
-12.190177101823792,-19.640050448895636,-6.825274214010278,15.814585154290398,0.7110253974951775,-13.342036368657318,30.883185538657926,-7.263316071719601,-43.46673989449482,-52.80104155160825,-41.87408154898549,-33.744157701683434
-13.775951053125027,-19.022783980362874,-5.683914878860378,15.666211878398826,-1.3046298971239594,-12.469471933054592,36.24046980599451,-4.097820875851539,-41.67654737743396,-50.992340159456944,-40.07795049845481,-34.522435698869685
-14.735789009364453,-17.707999920916336,-3.8941321432557743,15.004202918478768,-3.4755359819246223,-11.082426951947582,41.38320417504838,-1.0852679700165027,-39.80192466661538,-49.01561209546617,-38.10159660082991,-34.60948021205331
-14.86637614351821,-15.186118662248191,-0.9050194592309708,13.56121890779832,-5.86903864969463,-8.709457310972539,46.52515844116169,1.6581940828855295,-37.81926064227446,-46.82554502377661,-35.93659037790712,-33.78715334762637
-14.225001773294935,-11.134344642217911,3.7025063066721486,11.23621552532859,-8.501044968174028,-4.984123090063349,51.6671429497419,4.076983425182334,-35.69287263677688,-44.38375293914851,-33.620187596487995,-32.05743702085783
-12.997820628410409,-5.4688817808819294,10.087710316591256,8.065581633679358,-11.345575149506658,0.25156722367046314,56.80914280682555,6.167012530837383,-33.400537226836605,-41.667089526029486,-31.198396675977165,-29.554798577846213
-11.4427110507404,1.4865314856069745,17.9722971337942,4.263211746010711,-14.298223384201265,6.7642401179628,61.94046978163533,7.854254216919799,-31.082450689140387,-38.75788892956098,-28.72248351441158,-26.538330789826432
-9.81805293510115,9.021539638768445,26.548379085077613,0.1912920517133898,-17.1468619593561,13.905056383287956,67.05547868172471,9.188147784938337,-28.831808634744448,-35.732776964009645,-26.241777653083773,-23.33352910835265
-8.297143746507572,16.37410534704759,34.73362613892823,-3.7901624785881722,-19.622081961425465,20.896891419431086,72.17795358978219,10.603379959891754,-26.36204546591216,-32.47398593892558,-23.790132985172022,-20.204197829147233
-6.868268844471459,22.792103334832063,41.30388792018857,-7.387189447768833,-21.431822897454367,26.88462070736341,77.3450702615155,12.691720676239129,-23.219849906672607,-28.786918318187418,-21.376865753253696,-17.273882083666194
-5.43981439755953,27.829382459702174,45.39781079713248,-10.450154788206419,-22.37209083779271,31.30403697225165,82.5936274082178,15.990202429255078,-18.95150478571668,-24.470145274356582,-18.9985002169351,-14.55269709237973
-4.011403423299271,31.483221958402282,46.82790854090126,-12.967291278494486,-22.401035126276838,34.103007049210646,87.94870168102534,20.832077258917707,-13.244817528277053,-19.377520963314055,-16.65538414549701,-12.038079346397353
-2.5830275638436433,33.990471000133766,45.83257957674141,-15.0227131444326,-21.59110211632742,35.50561367728096,93.41472648044328,27.251040509945597,-6.059364688240748,-13.503101304381744,-14.34317264380934,-9.687750111831974
-1.1623182651328534,35.73352006318237,43.010429987985844,-16.758071257108895,-20.13168259770191,35.904406754349566,99.39388012473137,34.82750062950072,2.133936370617448,-7.070485568442564,-12.053137269706895,-7.441490345288912
0.2450141292574699,37.18472020099762,39.31514015480752,-18.361556633302826,-18.31013705263922,35.85158633112496,106.09960351192058,42.60456663415425,10.340248367623644,-0.6040361862369537,-9.772456643229816,-5.23024845419468
1.653812596183343,38.806168915860326,35.85243899226043,-20.040569635501015,-16.42238072726741,35.98727903437202,112.55206688859107,49.37053223427938,17.47746385238497,5.202413602110028,-7.491093360400555,-2.985940361660596
3.090798407287366,40.831774309113825,33.505066188128694,-21.929073082774266,-14.69661990597433,36.754598208101015,117.14868961752472,53.848422245835536,22.46220688991889,9.587867364797603,-5.208660434707781,-0.681948822088998
4.586800310253238,43.321115524839115,32.76304547839936,-24.091065171269292,-13.253907495030035,38.371221390353185,118.19165956114739,55.17785292299959,24.64845772336048,12.019104274423626,-2.9354000496387016,1.6825685639541916
6.169992279528742,46.35246970125081,33.82361653046246,-26.581506777822142,-12.138537592814828,40.97223166215599,114.32563989035225,53.17996323292027,24.072827630652682,12.375818274379526,-0.6894934031561206,4.1213006562502414
7.8601266920286434,49.89169619041786,36.50847713027542,-29.396835251416633,-11.316585370190296,44.473476237126306,104.86115274938129,48.14932752947789,21.16907782467206,10.826986998467873,1.5006475927502834,6.63119731748111
9.63106054421769,53.806979137551025,40.135323483478714,-32.479750193504515,-10.713110540846174,48.47006512387952,90.4318770904265,40.91188747691922,16.72924317336583,7.8578948462154585,3.625684071550495,9.262671890951879
11.448761909134191,57.80573426639603,43.61140427740611,-35.69361707458938,-10.18180484262939,52.26070121686098,72.9542299171535,32.64558495489109,11.72212574186051,4.198852586733665,5.6580576866708725,12.011846979582515
13.348137823972138,61.41102475262778,45.912038116975964,-38.80827359776231,-9.478129637354868,55.12731772641291,54.58884604169907,24.381838664270617,6.9168397080138675,0.554263650550638,7.487647596461102,14.646847823302778
15.392280941996432,64.07942852674569,46.25905221948415,-41.546565700798965,-8.35535166660793,56.43884667490556,37.75160089363817,16.786643822011683,2.642214652889379,-2.5652347858422218,8.965061318193875,16.817198527915025
17.656341456182417,65.35958492205827,44.32229872786229,-43.6608413083959,-6.621939093014589,55.84761939208647,24.04496731013387,10.108963874023175,-1.1046521802454663,-4.92598447283217,9.938447203277974,18.16726305583188
20.21164261499507,64.97137539684627,40.186610945427674,-44.971377643887536,-4.146223209279924,53.34252400830246,13.615296715361183,4.400840006659564,-4.3265438174094015,-6.4804363354060115,10.27937429072881,18.42491098656683
23.08936693061878,62.797685442528746,34.232084592924366,-45.35542387543501,-0.8898767098498865,49.13798705196314,5.9973560528305825,-0.45384897491385345,-7.128349118978804,-7.353186093762815,9.905632509879979,17.45180780286455
26.305937096223715,58.932630520497696,27.088281766285945,-44.74120648777716,3.0511271337090875,43.672857541563644,0.45751976775682124,-4.721848892129856,-9.68226671751836,-7.831119596034114,8.807845199429721,15.330156862669355
29.771919465225437,53.6557241884002,19.486553137610827,-43.12233526680939,7.448656382646732,37.47332720327631,-3.733197219498834,-8.618316218304244,-12.161361672558996,-8.287731749941486,7.063479627426204,12.3977323078675
33.18020616793547,47.30915662465304,11.988792305028255,-40.58294826925521,12.025473817018792,30.908438897586166,-7.1236101043741655,-12.069693702484074,-14.660389347827731,-9.024878896160772,4.812965762517706,9.124775512318593
36.08471833148178,40.256771297263185,4.8063111314022535,-37.27228769590056,16.48484505779561,24.10366620969171,-9.598649603105514,-14.707072264551243,-17.134337433308247,-10.17846995238233,2.2486486921452524,6.062290779832438
38.05289149969576,32.7660069856538,-2.080783696632352,-33.34433486115813,20.61100954941321,17.03055069124639,-10.818538596960934,-16.111898964783904,-19.48402197158066,-11.750860550521793,-0.4690364910129574,3.6069137158096964
38.78266241884012,24.98177449722789,-8.63939330149151,-28.928846425928896,24.312685481859262,9.715095967794696,-10.980940128547445,-16.130265644591418,-21.694670649620093,-13.740071880256437,-3.2664237270673766,1.855920061992947
38.09599121341853,17.002085732066917,-14.883483195735607,-24.14616192253925,27.56425267664963,2.205580826770529,-10.359743930923287,-14.806967888418512,-23.77616144030253,-16.10864561038761,-6.110797713603461,0.7333718128079454
36.11562250149109,8.932247562039265,-20.966181927500656,-19.127577021272373,30.58060237321206,-5.3633519855957275,-9.26564341179801,-12.525562850523784,-25.761004576426785,-18.81770211623916,-8.984087595259552,0.020297367510465847
33.091796794518814,0.8806945175638248,-26.97120468416324,-13.966260670098563,33.521942063596725,-12.732464946354412,-7.961645628069164,-9.96716783489319,-27.723053414420065,-21.83701433837814,-11.904637731287949,-0.6266907318613448
29.03208079289834,-7.089554866695835,-32.599214143781865,-8.646371679258664,36.00713173497388,-19.59248432079221,-6.563715783635416,-7.787763582171465,-29.783390220783986,-25.128514774683026,-14.955390354739393,-1.5915605598879665
23.860705449782472,-14.897994128024948,-37.312031697656494,-3.0838550756379846,37.35326126729342,-25.600190004792694,-4.992883115339282,-6.570926131647866,-32.08114911120174,-28.683070241569112,-18.226507545776258,-3.1605305962552848
17.42913611538279,-22.466427440562256,-40.54933012480615,2.8065570872076933,36.83361588459229,-30.51720437201675,-3.1146204706838034,-6.6309915240799455,-34.729681073140455,-32.49074009476408,-21.782159726271857,-5.480840035523215
9.570463460831888,-29.76599151346454,-41.942948571479064,9.056072138757372,33.93057286358999,-34.32293395402303,-0.9152358403152903,-7.940799794476334,-37.79095962266365,-36.49205642420657,-25.65571950431604,-8.625890700935543
0.2929181997988053,-36.758358768725884,-41.37248509149504,15.635170178800763,28.472821056800967,-37.13554593825074,1.5759150540852715,-10.289006697687,-41.2797174711086,-40.618571009699735,-29.826036492212552,-12.556693350994465
-10.08200688778561,-43.34342020168333,-39.1176351129252,22.42132606164523,20.899615207873467,-39.20527683604814,4.358468703005201,-13.32356095977957,-45.11875796343156,-44.803182485142315,-34.172020301466546,-17.088361569662084
-20.761609304312515,-49.34900366558577,-35.919090261366364,29.17555576007271,12.333271818998583,-40.8856153633169,7.320536045712288,-16.682664693304105,-49.19089054077631,-48.99125246777203,-38.48231382941594,-21.92126894701687
-30.62907885362256,-54.613501720417844,-32.72206005422049,35.59698520785423,4.142961481912607,-42.5261181044757,10.063798709808907,-20.17100951941211,-53.452004416601994,-53.152656044368086,-42.555772108071324,-26.76908596224621
-38.404245722418636,-58.98673161124316,-30.554457501924844,41.36467510561397,-2.1923549061930316,-44.37470793423745,12.0685629392392,-23.84962070099209,-57.89935114309628,-57.29475337665008,-46.21487217184222,-31.402119232112454
-43.14568932572183,-62.40100303013969,-30.117523377090038,46.24553034784731,-5.6871363666305115,-46.55077490326494,12.873645360055889,-27.885114208387677,-62.563886172010825,-61.43678341150735,-49.36799515715211,-35.69904069761378
-44.60948577878844,-64.92883814000925,-31.54372140623309,50.15896136772426,-6.218522716251755,-49.10339781332823,12.20627274114122,-32.3026518178558,-67.4825532804316,-65.57884016523985,-52.03647055724741,-39.63215535370273
-43.04807387246001,-66.7283209759662,-34.6061319828641,53.13157572187811,-4.178451470516848,-51.99435650950409,10.033155038998302,-37.07191899758254,-72.65221120229944,-69.72092352840536,-54.30482090504756,-43.232144901976426
-39.27608008887546,-68.0271246763914,-38.706918704101554,55.29962845038608,-0.448197978218559,-55.15070573117964,6.739503543221872,-42.11772529528025,-78.048123152872,-73.93296049455148,-56.30149080513729,-46.57181680586109
-34.568202643844415,-69.10164579728735,-42.99562510706528,56.88395442639194,3.7777716658492864,-58.41246698896066,3.0831486664283148,-47.23827242805419,-83.50653234885795,-78.27076108682377,-58.16944016504749,-49.72713487424426
-30.18194539842625,-70.20888337423094,-46.718583458812645,58.11015947427586,7.45048549512012,-61.47218340692962,-0.19956826354609802,-52.05740384666933,-88.62105983430229,-82.59941491993322,-60.018790886957504,-52.725330652339835
-27.070847739270903,-71.51104066796324,-49.42699803875257,59.15038032862503,9.987077964648051,-64.00218079359547,-2.4403392621152307,-56.124644754199835,-92.85398979971433,-86.67146069169121,-61.879919255258756,-55.51256698497309
-25.691693136670438,-73.07916641282645,-51.00500524455856,60.09594761617427,11.25653003147545,-65.7392370374946,-3.2901356127022154,-59.07089382283084,-95.73426520020257,-90.1975050738829,-63.73531521784025,-58.00025726728245
-26.115755630697095,-74.95159380627592,-51.48311485153681,60.99287631914194,11.25885025464595,-66.50628680169484,-2.823961587228041,-60.71583999359791,-97.01230881187803,-92.90807091999613,-65.58848810337713,-60.14306584125188
-28.08125592644501,-77.10255298658922,-51.05870549206156,61.84345987915822,10.207432746105042,-66.25921901948595,-1.3346204593526636,-61.05916208710005,-96.64965203568318,-94.60666764164216,-67.43087079893576,-61.90872626186274
-31.057747362128794,-79.50978862449847,-50.0495455350665,62.66266487691064,8.477781167463036,-65.13726223042067,0.7299941735163884,-60.326756852464314,-94.92120861298463,-95.27492996449746,-69.30588036746303,-63.309203627421994
-34.30832669383199,-82.06815016401742,-48.85434288956094,63.424613908258834,6.563621410590713,-63.495377923203705,2.9129289385236916,-58.98442857502596,-92.38387138009057,-95.05502199930015,-71.22865915363946,-64.36500327171689
-37.08456199104876,-84.46392024132001,-47.852749378957014,63.970268454958386,4.95336512322956,-61.80186787933417,4.94585751712475,-57.59583020311038,-89.62336784863146,-94.10947139103246,-73.03994898234396,-65.04090038232789
-38.89620900527916,-86.3129775039888,-47.25710446152516,64.10514137368864,3.947207619801702,-60.55365563405621,6.873703284878502,-56.71107994614431,-87.19148044563917,-92.67320018241026,-74.49922002380845,-65.28621351899073
-39.53769526664655,-87.2735904614874,-47.1300872392203,63.65673743995103,3.658912176160811,-60.09099772165064,8.878085853497396,-56.688284632176874,-85.4229146001635,-90.92219189499428,-75.35981676344636,-65.05109764059671
-38.906366864188385,-87.10615995545231,-47.50824073615149,62.49639371426383,4.1524145514240445,-60.4999930715403,10.98006525027813,-57.63006400473387,-84.37708158153691,-88.87652945770878,-75.42509157159293,-64.3030965493308
-37.101409841785426,-85.72844769245785,-48.32735063282962,60.59107658419998,5.361241299618996,-61.6868936172109,13.157462889625094,-59.44869887242021,-83.9655376400624,-86.54272218281676,-74.60191332808427,-63.06103319709928
-34.42640228555683,-83.29701213476619,-49.38321974986502,58.035135815267495,7.085492698459348,-63.35045961006199,15.281156442059,-61.89477811253528,-83.9640082786209,-83.9300595675677,-72.96981575017708,-61.41985898448502
-31.407465466567373,-80.23614194781112,-50.36220503757795,55.11228331327402,8.973325238576763,-65.04113382714331,17.13451244931457,-64.55702916514565,-84.13530192648068,-81.15577921533168,-70.81735480514544,-59.58131700124204
-28.681429971135003,-77.09351867218356,-50.98689695102439,52.26642127228661,10.591159500309914,-66.362045983582,18.549011878129022,-66.93844870805879,-84.41109975907966,-78.5253269447594,-68.55035259281976,-57.82055567145926
-26.82748474440632,-74.4681029549065,-51.059424529914395,50.0178055406077,11.53767018808594,-67.05847965627527,19.396800247448482,-68.6170413209802,-84.93513851393618,-76.48586671322846,-66.64818594912867,-56.44302618064603
-26.2160291995242,-72.782364964296,-50.5078548635538,48.770041711955855,11.553403326855914,-67.05380210595649,19.645241132988303,-69.3313459310084,-85.93766875818983,-75.44582047949643,-65.46839263318361,-55.67873239785604
-26.990578950053532,-72.15321012533968,-49.370565653578524,48.684153163621886,10.54296932633315,-66.37774757248098,19.385147145729206,-68.94425524923281,-87.5327656618465,-75.60083389214014,-65.11697995121085,-55.613171794889695
-29.07495231828034,-72.5092057776983,-47.76137315578853,49.7390704337904,8.568072220006798,-65.14984387609002,18.764324792517073,-67.47411201617797,-89.76290477258954,-76.97987905833088,-65.55181690934296,-56.225887706083086
-32.192378149951764,-73.68002104843981,-45.84496686914281,51.77248763066382,5.8768845490758395,-63.564937248902424,17.95499270568871,-65.07133061470995,-92.65820850502132,-79.48329732559341,-66.66887381380457,-57.446749344365344
-35.82729979295982,-75.34463388971199,-43.80274150641344,54.41408088003391,2.873235421242498,-61.83440967071192,17.11512945785944,-62.07578874206956,-96.07675845412814,-82.7725719523196,-68.23448477490638,-59.086674288498216
-39.294509775985716,-76.9746510312616,-41.77945292053482,57.06784066333421,-0.034326060811508796,-60.08899501627775,16.34354729059669,-59.01927521944708,-99.50832904349045,-86.19948563589878,-69.7948180355761,-60.759179297114315
-41.93914415013023,-78.05408953498227,-39.82602198776112,59.10461932932594,-2.5109650363046967,-58.33106385481415,15.628750200541617,-56.46788076072153,-102.24575529903996,-89.00564648314958,-70.87325617775241,-62.03016319499193
-43.31225529577023,-78.19125252779668,-37.93686536766654,60.043688728053894,-4.368889766932625,-56.49416182165987,14.914345755429167,-54.85498283650304,-103.63689464480558,-90.57101195278028,-71.0876082818304,-62.541633400444425
-43.20097286427517,-77.10358774314955,-36.133341563228896,59.61132415917655,-5.5463916973221785,-54.55458595003529,14.200039986179036,-54.41903975871901,-103.27304653324245,-90.54545492377201,-70.16390555857743,-62.059108956267664
-41.63722877385226,-74.70344010064582,-34.422442437507925,57.762774737648215,-6.076174039286343,-52.49526120138944,13.485829360384741,-55.19864772543224,-101.0063317773238,-88.85215100992446,-68.014718112825,-60.51504008486472
-38.855126975098756,-70.75972785401791,-32.44660912213658,54.50007864629879,-6.127727266733018,-49.91409612684538,12.630737506713558,-57.057161593158526,-96.81680734203655,-85.34154886835768,-64.36713448546107,-57.67403199479986
-35.39344805460678,-65.4677968105716,-29.94786018737068,50.19959309873593,-5.885455199213538,-46.566348880015994,11.516631008369586,-59.653072845492716,-91.15454545336615,-80.3529896730297,-59.3806040340487,-53.67546482227408
-32.11732073650455,-60.3355580808784,-27.654137090212316,46.04600263700286,-5.33807681757753,-43.37840065748878,10.41420739608111,-62.369700107363315,-85.34066644208542,-75.57663301466982,-54.63532899492566,-49.90517242045689
-29.95782669351138,-57.52386062723781,-26.806716989372944,43.57873960664074,-4.314341982417318,-41.89847669894061,9.827249491128896,-64.40339191900784,-81.13597224718796,-73.35029125209348,-52.43775746643496,-48.37511301309496
-29.634280770207624,-59.107892416606774,-28.741284616793564,44.1836396882627,-2.584203563606934,-43.77292791505943,10.351016571754371,-64.93673728398971,-80.13381205555743,-75.89046130118095,-55.038133105530505,-51.043142420064214
-31.543196810902373,-66.53435458304739,-34.526798185746884,48.76935152527403,-0.001617675467969093,-50.3014215554208,12.547631583160182,-63.20731444504963,-83.35053578470615,-84.76389305843168,-64.04320177391673,-59.3073517079747
-35.74639895118344,-80.39638889193702,-44.67738329531676,57.658467762781584,3.4721184700183585,-62.127717367450714,16.83851249097279,-58.46957566850324,-91.19552640612164,-100.66142730887714,-80.1685771176617,-73.77711421104732
-41.84419065710972,-99.95718466030667,-58.702366382935,70.30188543122131,7.780608133155511,-78.75678834817427,23.060286200639894,-50.056865898171964,-103.68118065810995,-122.9732373268007,-102.51574867628369,-93.60359225050706
-49.096004874541904,-123.14604363264516,-75.06050594783301,85.33188245768906,12.61224614333969,-98.48898703289069,30.788896685780855,-37.26182882413559,-119.90006327608899,-149.75730228663724,-128.86958032964048,-116.76934107090165
-56.74124914104141,-147.25175307723293,-91.75341238017063,101.04011407514645,17.28490789429361,-119.00950849066021,40.213107849785956,-19.320886809844524,-137.28065024597163,-178.2822877439603,-156.9189007725381,-141.24844786069843
-63.993097145348656,-168.98416799467122,-106.31220380477316,115.41253687507378,20.921811283586976,-137.3802636580458,51.72257054469992,4.351964246790885,-152.23451931234558,-205.10047696967467,-183.94968100441383,-164.71441604431402
-70.19404849031343,-185.53915835161752,-116.69470658568753,126.72804917427129,22.771509746222364,-151.08144663684197,65.89967111434999,34.07834578050097,-161.25824018482126,-227.13809068361388,-207.69106060722152,-185.26997901536652
-74.81007332149784,-195.23000110050816,-121.901246637246,133.8632782076702,22.443661637466903,-158.72533674471197,83.4957397893304,69.87493209687455,-161.654335271709,-242.34795112892607,-226.76918543423926,-201.83027551324858
-77.24154831530359,-196.72295592002047,-121.29998388504828,135.83400109977083,19.87171060842047,-159.2972658043377,104.95275386622416,111.33086624389944,-151.47781179181584,-248.96756739282955,-239.6906737243953,-213.20270371645165
-76.82615338454525,-188.80915746175742,-114.18421902985756,131.70336821999263,15.276227368181026,-151.83015745024431,130.3352837265502,156.8425331189028,-135.08717405179414,-246.40337182357143,-243.9825543513216,-217.035921267116
-72.50156926576346,-169.93324269159712,-99.7329609035969,120.17232060802326,9.350256309513497,-135.14767569092646,158.8579500276228,204.56991056604966,-116.23488369721599,-233.40098588111414,-235.96923008217163,-209.9516318136043
-62.699450793212236,-138.32166877277086,-77.63576084501256,99.56276543401327,3.3224617463729373,-108.22521464554757,188.36809070228446,254.43331948042214,-84.57533137161408,-205.49442998250834,-212.30651718195622,-189.5724230531423
-45.73391545208324,-92.23031777370852,-47.80563145381166,68.15541705484611,-1.3991042424004263,-70.17232856946339,215.57967205322893,307.29296282134965,-23.08174356375821,-156.7946320009878,-170.11769542163984,-154.25892494303298
-20.35675294310022,-30.620870417567858,-10.574621973424655,24.797026652566274,-3.6995192081722053,-20.652669931983382,237.1793198826672,364.3776731215585,86.36431765060843,-81.90192307631878,-108.1219091497187,-103.84270330536856
13.804994842203087,46.08507434392959,32.925538043107736,-30.517172678807583,-3.0083116766681997,39.55887282334197,250.76337701723787,426.6163190400712,258.0868641721263,22.3529849410761,-27.58238886002073,-40.25297537390361
56.26237500546813,136.1889720862855,81.16160531228888,-96.71775839831025,0.7272641140416454,108.85201428137589,254.47335381123776,493.9186174549286,497.5988464444308,156.13920167822562,68.53683995283518,33.49215917229685
105.33364575853011,236.27482202107785,132.2769240370999,-171.26035964653875,7.454931700740417,184.58528468363966,249.11149184559144,568.2791135070656,794.322248700877,314.72471310259334,175.44166568010587,113.41968954827553
158.37668197554558,341.78037152382603,184.4440330582038,-250.5238470227505,16.243842812079492,263.56163007514215,235.45608427225307,648.2699110256945,1119.8839056846118,488.88911544084203,287.5162699636312,195.6978775570974
212.8451316268547,448.788233669522,236.46883556156536,-331.2447358435229,24.350728051908845,343.2456709921262,209.15413784696102,719.9868871777944,1439.3097290543901,668.8192591610086,400.56364701201437,278.39274119802667
266.52435809191775,554.3200903756224,288.0204640419379,-410.7732308261684,28.357734166981572,421.9984038218072,163.60697476697715,762.7834789892004,1713.0471175135244,844.4508733648036,512.4738373006585,361.8754969591773
317.99322945256245,656.5821997384664,339.1850016563458,-487.45155432512183,25.369701036422157,498.9676768236568,91.99825047781087,756.1822509249723,1912.2589222169372,1008.5156387230772,622.6664416253589,447.47840464041747
366.6037872684665,754.4989176796007,389.7627024196954,-560.3946231399095,13.769326060919411,573.5014478680405,-10.855889484670115,685.4700139454544,2029.2216155969036,1158.0063501580053,730.5307656975383,535.4996286152436
412.09099961521133,847.2895399768204,439.51063593223626,-629.0607437268009,-6.496551595745586,645.0395765006688,-146.4784923231564,543.7088374726773,2067.1889870127306,1291.6457737520495,835.5718967500288,625.7575298630964
456.2837257611318,937.3912887963725,490.24772165556715,-695.4778707564928,-32.84023961455841,715.521864444182,-309.52834244350925,337.69015150181804,2042.3300563167613,1413.3465460299403,940.2633189782073,719.8254159536236
500.2149498191284,1025.5156240475153,542.9208374431673,-760.4269129425447,-60.27205689067978,785.5461143167349,-487.82533152952055,87.212340302327,1973.1410042297684,1524.7692104014795,1045.266161650663,817.3897326370193
539.0392802753013,1102.1345734825409,591.9793653594479,-816.8642878633509,-83.9672276536703,847.5723725199528,-667.810646919419,-185.58765165891236,1863.679651958173,1613.4662525113663,1141.0620234733815,909.9201219578099
564.6743318119716,1152.2407206100506,628.4275444643099,-853.5091023872174,-99.6562059639673,889.7472598239756,-834.7042285956941,-456.3187566062643,1704.7800579797076,1658.8765491268286,1212.547347812677,984.4787865049025
568.7501456230075,1160.6202686718643,642.7902542333104,-858.8677149444193,-105.15567116774218,899.9760772701165,-977.806835187881,-707.8075920940537,1482.727816402341,1640.2535961045296,1244.2553949954408,1028.027593106357
545.369191765376,1116.5816628389184,627.6388167963541,-824.9084030608701,-101.00453790865595,869.492970322759,-1093.924862181535,-935.6912524843901,1193.2485348141036,1544.5503781628204,1224.9908111388613,1030.9704213744521
492.4317573778353,1016.1950905845151,579.265475153321,-748.766521087915,-89.21461434546836,794.7266694404934,-1183.0744576842408,-1140.2897504381035,842.1414204974262,1368.9021711223822,1149.9315855010418,988.7252921522422
415.0951518082966,868.0956950621403,501.15574885227943,-637.2343689669742,-72.83624253291327,681.8215267448822,-1247.707586699964,-1326.7000924866043,456.82537233824587,1129.1286156501292,1026.065231829598,905.8200210538089
325.53008266397046,692.9666870380661,403.9270033673183,-506.3754934674671,-55.150653992217485,546.3088548588794,-1289.517206034101,-1497.014245795277,83.67417207498693,858.5516777892526,871.8304478635,795.6213160122434
236.3267600811978,512.5551510238583,299.48676377639276,-372.9715911744297,-38.45024961269701,404.8013578150121,-1306.4907500946902,-1640.841469310888,-237.58640855369777,590.6066834365756,707.2045867426878,673.0231404430651
160.20428965445717,349.25544838379574,201.09082288183708,-254.16309061140055,-23.06227670429689,274.77664541916147,-1292.7573896486556,-1737.3819703831232,-474.11345039270236,357.7687539493372,553.408692072715,554.2696282163502
104.89577133160674,217.38514709712763,117.84093038391075,-160.73741321383204,-8.236693363018276,167.67183347383252,-1242.4549128439776,-1765.2512920056997,-611.6740961715113,179.46786581226388,424.44189962691144,450.3901999899372
70.02460236555089,117.94505559409299,51.01057395908356,-93.09778528398601,6.0213711821725155,84.6199748266472,-1155.1993984553283,-1714.395191970405,-660.7787053181582,55.41629837951132,321.84918270583876,363.1398542681436
51.45919395211422,46.07925970674478,-1.2982600527375325,-46.991968446443934,19.737734793865457,22.340357486128596,-1034.767860878581,-1584.540850082889,-644.1210975498598,-23.885505450341043,241.8671287575089,290.5086036816924
42.97477938605698,-5.725166719927074,-42.37891152251905,-15.937272312570713,33.11119516008512,-24.398763404308283,-891.6480793903338,-1391.4454211118518,-590.7854995050075,-72.54642836003677,178.57853009848986,229.20295059227328
38.12425879238617,-44.66902823198325,-75.13847487006024,6.487357684962262,46.08122679911503,-60.45776164643348,-741.7005985936066,-1165.185041540426,-528.845056190361,-104.55861875085156,126.34149360441188,176.37086298998247
32.29728220617653,-75.71762730703995,-101.12271910261734,24.891408922450864,57.726171438956044,-88.96742393198838,-598.6458833149118,-935.171009814876,-476.50591726239327,-129.71683117345128,80.90499827375788,129.92380962686047
25.552795767884163,-97.23030046019994,-118.36667611823395,38.53336296834277,66.60348040846748,-108.13581686540965,-473.0738715053758,-728.2437813971737,-432.4513399546249,-146.7193650064646,43.6606492298406,91.59067028557365
20.210999196488046,-105.23274797904742,-123.99587069202789,44.52549948930937,71.31897916459184,-114.63164505150189,-369.9603804283197,-559.873517537937,-386.54142353134375,-149.68958961542285,17.985052698481013,64.13288874291311
15.974773986332366,-101.47083625732193,-118.82046606681615,44.06967730888391,71.06820676218831,-109.78949952579751,-288.5616765899995,-430.6507841090279,-338.8207558750455,-140.7067499804989,2.11931634024495,46.11607510276417
12.485923864396682,-88.90872473606578,-104.87882086600803,38.98337729630384,65.68899783236611,-96.17932376472936,-225.0420914831284,-333.86824732412424,-289.73047011932795,-123.03247912342977,-6.534816191361642,35.18584920846024
9.440943211406193,-71.56968645520828,-85.58204521738844,31.48486881907229,56.10840939015543,-77.60658209291023,-174.57171862474752,-259.56308918296054,-240.12267445631005,-101.00335781922058,-10.808313946630733,28.64071859605656
6.650186326811308,-53.84921247509919,-65.13652695050041,23.819176898492515,44.26643410629549,-58.46113740937108,-132.82866334021128,-197.97191435166678,-191.48472087140908,-79.29848973874505,-13.13507317775202,23.964773928774775
4.0380123854756675,-38.91096943173034,-46.79709732724223,17.55106916204204,32.12884367780134,-41.988149184856866,-96.57580788848463,-141.87696937286455,-145.81087835542712,-61.16423605460568,-14.969845367733797,19.394311083193315
1.7324311486336228,-27.84935826162655,-32.232545112909065,13.055415273797735,21.57439568229165,-29.54575323055724,-66.41136348299551,-92.4657168381309,-105.2391402954072,-47.640243758291035,-16.022565962341105,14.789103236805204
-0.10471895856426272,-20.325158640396694,-21.67426450718267,10.009748044750268,13.726643166706708,-21.018906920792688,-44.23167651123367,-54.33808200643034,-71.41649831940595,-38.25558494937559,-15.393290895965038,10.73669938437979
-1.4933023164649057,-16.026592709415127,-14.843312144696029,8.3215458777795,8.62487175444403,-16.04550992729719,-28.566791858012948,-25.634698407138785,-45.088213890836414,-32.521798541644785,-13.311661696643569,6.994010193337999
-2.4803201093363896,-14.162995111737473,-10.892720399195241,7.692919475643066,5.783012206481544,-13.729908415135014,-17.53039573955175,-3.7922151960083283,-26.25182903590212,-29.467506015776053,-10.156956882042323,3.403324307533694
-3.1696559784340934,-13.65077963236945,-8.710874601560135,7.698162953081919,4.420458598930054,-12.888154632710211,-9.320587809326753,13.675984106375836,-14.06084286755322,-27.882680769330364,-6.406070725172867,-0.014864012780890334
-3.6274366474171984,-13.362875621340208,-7.250410785565691,7.8172853920777925,3.742714223215444,-12.35642314010829,-2.570632992696119,28.67031632409453,-6.940450091096864,-26.619567250329055,-2.677380364144483,-3.061083791922556
-3.7380076426088635,-12.484357365930919,-5.83118579688562,7.520864754937065,3.2237217413639883,-11.358687372744953,3.5159750600578263,42.35278811071112,-3.139104027661233,-24.937280252590426,0.3240918837636855,-5.51479539491811
-3.267691961080345,-10.899381562419876,-4.594760239171592,6.48503710690693,2.9709724350286706,-9.933652602548591,8.639260611324062,54.318098784118774,-1.0629137175965298,-22.906025540478367,2.0242413195574045,-7.141695312532647
-1.9785259691452666,-8.879263993079803,-4.016868486238309,4.580975556140402,3.3685270971809587,-8.505380424908708,12.216307736116505,63.75127407422042,0.35729457451816415,-20.95758599913097,2.0824975769310186,-7.828158826217532
0.25246233057441714,-6.431749744700937,-4.023024140198686,1.7130418245433248,4.372558518592086,-7.0771011571901,14.53803749040162,71.13555034157798,1.72448608365994,-19.08677758830254,0.37616391063056653,-7.670555041544503
3.419414455162041,-3.6319215998391883,-4.468259382472752,-2.0596900250448016,5.862716662635648,-5.648816713363885,16.002962590775496,77.1067086865969,3.330195482201816,-17.273828775313632,-2.9267966310753764,-6.86353271696953
7.344839482308089,-0.5807327014554176,-5.162150221647607,-6.525863406207463,7.645257688900529,-4.220528871076567,17.039017381343,82.30245676166851,5.268940178342746,-15.494331119562048,-7.231384042756872,-5.659134654020818
11.609917268726349,2.5459421893483523,-5.883091646635876,-11.251528243325083,9.456943474024229,-2.7922393191520314,18.019518685619914,87.22961813961956,7.532851427249625,-13.713051118677868,-11.594236429014018,-4.3375684086740876
15.626621709250685,5.4424421048788645,-6.422875397405733,-15.610150660631916,11.031773689979673,-1.363950641010888,19.168101115561512,92.16790327146373,10.049735892564058,-11.877699220272007,-15.18657750906823,-3.147799421903983
18.75735889652242,7.794185256512719,-6.656109622424992,-18.95605893379252,12.168802605797282,0.06433507782730885,20.452641107580348,97.0023854566789,12.869884437801375,-9.937381149650719,-17.39894286355411,-2.2070539697456297
20.5436314390372,9.360326571444602,-6.5334775603023445,-20.828957870487102,12.765078292444741,1.4926159652795832,21.73822248493707,101.49787503160405,16.11316141426869,-7.85336687637664,-17.995411539006454,-1.5320536214994718
20.85252966003827,9.99977981383745,-6.024909475989261,-21.051339278101295,12.796427371635218,2.9208893379700385,23.023823850033295,105.69681960953312,19.727698017202783,-5.600737066592956,-17.096889124462905,-1.1437418194627753
19.806012906099568,9.71554041773561,-5.157454156054882,-19.715904676003447,12.326584946113144,4.349152967472037,24.30944119179003,109.67828468325206,23.61453606564828,-3.175688141446699,-15.045710553024037,-0.9993940703798216
17.85332888740595,8.743922420595482,-3.985974361847184,-17.29751631398267,11.513684949066374,5.8666852062233374,25.564113519090824,113.54922064226412,27.653254684079002,-0.5856124020101561,-12.326937261882449,-0.9559686577267712
15.697014871821011,7.5314727824152214,-2.6416889328138495,-14.579604800023844,10.599758236679918,7.537062000744299,26.76373324800261,117.42507513105375,31.73252251808117,2.1237247314393244,-9.451981974663795,-0.7940130117763147
13.956720793126806,6.510629697000695,-1.3837628989913355,-12.261476957643026,9.832262966673625,9.16246452409996,27.974012650440272,121.39038641764637,35.78399813991928,4.842016438095925,-6.786322967761407,-0.3391560287627726
13.061893142503322,6.066274191114644,-0.503362621046108,-10.868129441549172,9.403091321350075,10.415313351395525,29.308513975060123,125.47399061507895,39.82042189966705,7.435700709199409,-4.383647863882288,0.5203902774196649
13.16385768732107,6.410867821439751,-0.23442210064240498,-10.617532224912793,9.40969124847561,10.953609959367895,30.89138919648758,129.66846262420586,43.88894961116239,9.796984129746306,-2.122131900954628,1.8067519497062676
14.199899433786413,7.536407559509826,-0.7087887744364707,-11.44268848095453,9.873049929308763,10.517310078880655,32.82574982755068,133.97430555172832,47.99021460655604,11.875999513032184,0.0032599129572190577,3.462643658745037
15.959850170433128,9.321308300293822,-1.932977642158221,-13.109036655169803,10.740634045791012,9.005731042738262,35.16767711103057,138.3825981401351,52.12066828098614,13.685956017871831,2.0201334372768542,5.38528610998128
18.14142497800458,11.581882987527933,-3.760126973973456,-15.292945180251081,11.8946354957734,6.571709528990141,37.88265453555687,142.86935807585905,56.298942655868814,15.331881999299185,3.9716648179337426,7.450541218440321
20.423125225239346,14.131967850094952,-5.847928923067229,-17.67255477562776,13.156311442143306,3.7049008007297743,40.84398411361872,147.4137139673985,60.531445900258404,17.012491977897298,5.907678733025932,9.541944015956688
22.567967869676067,16.84008170319612,-7.727115835830773,-20.026212972360554,14.327768157681021,1.1037620436773068,43.89525624893213,152.02924271791198,64.74553192110398,18.941484724123256,7.8738248301779095,11.58470390426919
24.537347962121203,19.709786735253147,-8.904156575934394,-22.361967175414065,15.254002078159829,-0.4299622458934209,46.84218430063447,156.7558856650303,68.83230689035918,21.314511296313867,9.894709441573468,13.584670155402364
26.406446466560737,22.804420849595772,-9.030314021872982,-24.796299309817186,15.851396709504115,-0.30730995806698047,49.52503210287432,161.63995027788587,72.6841786188088,24.244983463381686,11.981343588926393,15.584295095336984
28.17415628312483,26.09341338973536,-7.993521389787929,-27.312673383853507,16.086471236051693,1.6194470222308155,51.87388143120006,166.70959226800915,76.22407676254807,27.736798655952043,14.15454772207886,17.583921344938062
29.857612234771295,29.530191851170457,-5.869706103996577,-29.887319120527536,15.988565363810267,5.202752321382832,53.84398059209889,171.9730264286227,79.42819637519096,31.719395506929686,16.433121654180468,19.58354655641824
31.48558295656585,33.05381205963931,-2.945855186229892,-32.49551440201412,15.655158791926624,9.961616615841649,55.38878316900991,177.43283954634535,82.34893729551368,36.05158421127362,18.817284829729033,21.586284146638718
33.1043723138373,36.589965476770885,0.29956905424478464,-35.1104742397456,15.252328976389435,15.159094656131856,56.433779034114195,183.04558034717593,85.14051796577405,40.54737059418039,21.310324211781335,23.59458943869913
34.781821929866055,40.06686748548054,3.3665587556533865,-37.7018529092511,14.967681286027982,20.117172785078765,56.89586448676346,188.6714848781794,88.03374699489723,45.04521349064544,23.96036645305321,25.601816097879237
36.583508121178966,43.4318986777871,5.852344670987804,-40.24682616019345,14.963600326570486,24.369380532713876,56.68102940189419,194.124161284195,91.302463088683,49.45282898055575,26.8342130804067,27.59647939014667
38.55788698706965,46.65675352616563,7.548579566368062,-42.73060922827881,15.335286055020333,27.73749595622394,55.730448039232215,199.23847533524895,95.16731689157132,53.74435506785903,29.99696262535508,29.56604441266245
40.735399871840855,49.73071243999584,8.420945338770252,-45.14122458491147,16.10914248179688,30.226471497387138,54.07984924113589,203.92223733339415,99.72751933392647,57.908955479594624,33.49491597098131,31.50014049961692
43.12083439961316,52.664989780900214,8.586170638942349,-47.47692204785562,17.248824730177148,31.997487296505824,51.83006051604207,208.1615552006333,105.00211459421189,61.963356134038804,37.33957303086845,33.39319743531178
45.70862792015396,55.48949762335542,8.328325192624106,-49.74484562762245,18.65289258890334,33.33504669490139,49.15748249501303,212.0302288675739,110.92399477247636,65.94130558116467,41.51333209888435,35.244484308224855
48.44676471711864,58.25301605477216,8.039568252035679,-51.964565954560385,20.162072602481203,34.576643649347716,46.29273963334708,215.71871140261283,117.35653846513378,69.88359071237028,45.92246082804104,37.05929139586215
51.19770339819479,61.01944375467065,8.034708087248873,-54.17535937027151,21.61013823335452,35.984742377185285,43.43728103704416,219.52613100636881,124.15440810839209,73.83233365523301,50.36343634277091,38.85698523457586
53.79427041456984,63.85207459587582,8.477220386366753,-56.43072804193889,22.867261484416304,37.64568999204948,40.72942736913319,223.80383119378894,131.20040379184684,77.8136661880817,54.58501643763793,40.67347592629267
56.10201800944924,66.80195059389007,9.377737223854638,-58.78584781889367,23.866550904784162,39.52340635452356,38.234402746909836,228.84787014170797,138.43294144664833,81.84544449187797,58.38268968241118,42.55430140152748
58.06030660215583,69.90971289862136,10.688545157412591,-61.28984290228891,24.590084835024754,41.62042581567721,35.975767972442554,234.8348404304088,145.8271039762658,85.96287587558345,61.66805416073839,44.54819445214798
59.69240884391729,73.20385373704994,12.30352196298918,-63.988591952921524,25.068510646950926,43.91525050837754,33.93992926230749,241.85220863689756,153.3852169163256,90.20544459028042,64.46292313545473,46.71171732056564
61.15948935769302,76.68282107670893,14.08594007771535,-66.91629921926778,25.378372426619535,46.37497371138852,32.03008595582469,249.89505339708376,161.1109994148337,94.57198007548504,66.93804301604541,49.11428036589314
62.74841054237004,80.32978928138073,15.902960517665633,-70.10410200287424,25.63722755701565,48.95862571845555,30.1619030159236,258.8696552578913,169.0164531935534,99.06761713351898,69.41366218848452,51.837642223046714
64.72541219131017,84.16450885108861,17.66655611097849,-73.59537129064483,25.971133066608672,51.626794375654754,28.442736903920377,268.6232374798037,177.15861427217897,103.82006170527802,72.24086537247422,54.94929034293
67.31059691156224,88.23402060006629,19.3809123799183,-77.43175013947803,26.47748567090548,54.374071110586556,27.102478837514354,278.9844527283967,185.60392634235177,109.02118083788719,75.74399503000132,58.48998067766479
70.60642800435926,92.60869098235707,21.094770308962325,-81.64901242517044,27.20695318667913,57.2252862348696,26.39373109818189,289.8197777966343,194.41936891657315,114.88045738559686,80.12254846894484,62.468880472403725
74.57176476184213,97.37295646168423,22.808556087889883,-86.27464779015463,28.17776579409474,60.21059216658159,26.48025925967704,301.0421695886689,203.68360653381023,121.5885586706163,85.41617852384934,66.8667506365291
79.08271605065784,102.60910531277477,24.52228673672289,-91.31664071407613,29.370558379308022,63.38686669541312,27.40415597073479,312.59296747808366,213.4614415740416,129.27849494326983,91.55458115811052,71.6358468136068
83.95793964680342,108.38873562439403,26.18782343291241,-96.75290203983786,30.728689204937837,66.86858087320525,28.98585439081944,324.4492637794119,223.76764753280804,137.97697114614402,98.36719481892396,76.69844541941211
88.99880508210663,114.76017305576897,27.76393954582454,-102.53109459489042,32.15898515995923,70.81248514135768,30.814825094585103,336.60255718588087,234.57311562908217,147.58451410032558,105.61799142677592,81.95443865935977
94.05437599416655,121.72796241594915,29.350704143884286,-108.58977626602064,33.554802679771456,75.32205824118046,32.44194758547201,349.02792294880055,245.86978079999244,157.92850876691773,113.09162089170877,87.31421482306587
99.0808646538535,129.24266109684686,31.12728814278671,-114.86269923987857,34.82466439026575,80.44360832741813,33.40272097342495,361.6946862598543,257.6526015478994,168.767174218724,120.65865211566779,92.71847930823515
104.10137773479073,137.2343679309106,33.29597011171245,-121.30020909850282,35.913040490278945,86.1557267816952,33.38749280677621,374.5755755078717,269.94643272091344,179.9021259738647,128.27535577640901,98.14240450105626
109.1052993703488,145.652187982756,36.03403149465157,-127.88163494657783,36.79670353005167,92.37524749800014,32.356981005958005,387.66713904948483,282.8314816122511,191.27157109866948,135.9118870893626,103.58014745700984
114.09367880855461,154.44121632899987,39.453566086831415,-134.59974590290767,37.48513239449039,98.98258274355976,30.409132117709305,401.00134626227555,296.39995123595145,202.87125200648643,143.57161045009343,109.04740085471622
119.06002508194979,163.5455095639154,43.537597922448185,-141.44815599949834,38.01887123698907,105.85244556374028,27.748715846546474,414.67226264144483,310.7274603054175,214.7311899471415,151.2572204013295,114.53899881623784
123.99820309802271,172.90226606280703,48.12367236020873,-148.41893776839242,38.46759932576424,112.85926002257384,24.608174759903704,428.83590306067344,325.8666862165883,226.90110744402318,158.98282666691102,120.0638605692834
128.94457276238427,182.4462086191561,52.992121233070066,-155.52094151173696,38.91735978903034,119.87973584869633,21.137412692596627,443.6371441840947,341.86246011170806,239.4488260184471,166.83285785415956,125.74282387934909
133.95938400639534,192.12746310251532,57.86652741591388,-162.77044325896713,39.45031863251006,126.85065326645326,17.341036253214043,459.1912936035551,358.71990500821266,252.4220313138012,174.91780244528672,131.74995005260644
139.11899561137943,201.91877173500325,62.53527920320448,-170.1947456288508,40.12850655463808,133.75344088589372,13.151000161165939,475.5451932073447,376.43276534214783,265.85350001900133,183.3571089086381,138.27138441683837
144.51646489149243,211.81577742925765,66.95158321990493,-177.84396055338584,40.9971916092054,140.5634760428179,8.589862034872567,492.6593155277151,395.0286219423815,279.80353053384806,192.2860778957329,145.48349898651486
150.24513250110067,221.84462218622502,71.13839369279958,-185.7796845396315,42.08540536583132,147.2973050763767,3.718400468924301,510.43531276592876,414.5271021831504,294.3349097549044,201.82482388734206,153.51621177480774
156.3142776583627,232.04147912932785,75.18829810875468,-194.03359766703943,43.358930487045654,154.0507705227974,-1.3328246216206026,528.7048920743673,434.87994543243985,309.4638544133513,211.99106245598614,162.36171204062612
162.73442617347428,242.48938863005242,79.20447522117502,-202.65411487861093,44.78429496991794,160.98594166660132,-6.3598366784754035,547.2762746826593,456.0344498005179,325.2201141083533,222.7748398992253,171.9278946270315
169.70513380365628,253.3609329217943,83.19939622584025,-211.7912000799306,46.46194452641248,168.22884139578764,-11.164708303875159,566.0389261443706,478.06634795492937,341.75211794146253,234.31454725908043,182.20968850052668
177.48458970240245,264.85138327299137,87.08425959524902,-221.61674759025118,48.55591848278709,175.86578237710864,-15.574715517363074,584.9725365438644,501.0861569108474,359.2332176337741,246.77389538031912,193.1964947240649
186.31565118998333,277.11585504743016,90.72625306690679,-232.2746272688255,51.23441427850139,183.9134657239665,-19.492659723431643,604.1114723056271,525.188357388648,377.80240621854955,260.30003699319604,204.88931385866272
196.37725065776613,290.2327326563063,94.04960144779034,-243.8520365080767,54.613499541110286,192.31008347853367,-22.92608392371585,623.4724724688822,550.4154476582589,397.52497322711133,275.0016715795491,217.32067228817778
207.6938381936052,304.1857750661784,97.0216549530287,-256.33419361258257,58.711636886320775,200.95504133644863,-25.951985325644273,643.0550098699969,576.6911104106093,418.33722823752396,290.84590381517773,230.43708847316157
219.99753426012649,318.8227019157057,99.65774135758147,-269.5382564640249,63.36719262562383,209.73098652147473,-28.704290996209238,662.8749640324422,603.736840995818,439.95653445714015,307.5184699403617,243.96453586047937
232.7237943251621,333.8538302068173,102.06552594694949,-283.10778258338905,68.22528502775367,218.5298614951016,-31.354779371646146,682.8803358716541,631.0446658726687,461.87837021146424,324.4220440412673,257.40834308340436
245.29428216733322,348.95834881270275,104.46615223416484,-296.6581954717276,72.90284828644872,227.28316585363154,-34.062272731642224,702.7982842316997,658.0457379982727,483.587507401141,340.9719232523994,270.32326332616503
257.1404394286874,363.82273677664125,107.1403919548502,-309.8094496708454,77.01621065678228,235.99638194157887,-36.91963792615752,722.2102262616681,684.1663927496375,504.60157764045925,356.6172580438715,282.3046316359723
267.90822009488875,378.2326238308706,110.32302241818797,-322.30727059805577,80.32370950042969,244.7091496760322,-39.95553125888728,740.6837922432751,709.0068691163997,524.6196149449324,371.0320206862616,293.13676749109527
277.59673120012485,392.11595697807206,114.12098820460233,-334.09565039629524,82.8245481509557,253.42184086531506,-43.1859673427025,757.894177028531,732.4614615237424,543.6064802337432,384.2441482349259,302.91005410661
286.382108662714,405.48617992370964,118.53595517164649,-345.2297708788037,84.65184018402306,262.13445768931706,-46.59140077088523,773.6310043680915,754.608433957681,561.681719479634,396.46449874719474,311.8635462866614
294.56101856437635,418.4626397383872,123.43336094517508,-355.8679917746613,86.04766740870127,270.88704978544774,-50.12628929055791,787.8854638817902,775.7160164666366,579.0992713838286,408.02928852505465,320.32338922414056
302.46377639033744,431.2072632137206,128.55602677157185,-366.2123506515745,87.31048835696038,279.72600754769564,-53.711732845926235,800.8477436568428,796.1644233978222,596.1724182898424,419.3100663844134,328.6227825852616
