I,II,III,aVR,aVL,aVF,V1,V2,V3,V4,V5,V6
26.501287622097152,20.096538773001157,-2.176341519165362,-31.86202890671302,18.047434622552828,2.1640135429229304,-49.71009652997782,-46.45312863730214,-20.70749210078793,-16.81298321529175,-12.644417787074417,16.937910868015933
29.07306997894193,17.079510104678775,-2.3313592797148885,-28.79570831990077,15.430086814873903,2.006967052818254,-46.57857436414815,-48.70620617498025,-21.895118126138186,-18.372217193123106,-15.063699821565024,17.247119794827995
31.262073670577593,14.171631385852379,-2.8113623506560543,-26.0588737395492,13.537211266513623,1.5251272434416023,-44.091287830440706,-50.467300696469465,-23.082885489144246,-20.180091617029575,-17.475175440179555,16.981569397238673
33.06829869700232,11.37290261652197,-3.6163507319852215,-23.651525165657404,12.368807977473807,0.7184941147929749,-42.248236928855476,-51.73641220176978,-24.27079418980611,-22.23660648701116,-19.87884464291801,16.14125967524751
34.49174505821975,8.683323796685727,-4.746324423704209,-21.573662598226292,11.924876947753546,-0.4129323331271735,-41.049421659390646,-52.51354069087938,-25.45884422812378,-24.541761803066947,-22.274707429779482,14.726190628854965
35.53241275426626,6.102894926376393,-6.20128342578937,-19.825286037235855,12.205418177368301,-1.869152100311112,-40.494842022008015,-52.79868616376734,-26.647035604073608,-27.09555756517875,-24.662763800748507,12.736362258066947
36.26664656325556,3.204267432969573,-7.959625889212475,-19.0219213775963,13.210890517126245,-3.6294793650995416,-41.405300984315545,-52.752849985778084,-28.141452444451716,-29.699867237181934,-27.984134411972263,9.442668943379886
36.5908357148237,0.8222129632104043,-10.104710874209559,-18.09530774380437,15.147054600294723,-5.773902071290195,-42.54737539623238,-52.137759151106366,-29.345785306162725,-33.10888412491386,-30.726723490314725,5.78092552778844
36.47771421676225,-0.6668802706117276,-12.767586413596291,-16.57760015744134,17.79194715700305,-8.376287288377625,-43.78882292973685,-50.58413803233634,-30.697200412880193,-36.79989327182557,-33.265015597578895,2.214950645454337
35.93657593365424,-2.423191308922469,-16.00070366321779,-14.937943754881417,20.85992090997661,-11.471719828266941,-45.00051778612033,-48.243710393122456,-32.170540038676336,-39.933246947879525,-35.575396711089525,-0.8037941563693494
34.989825672737425,-4.679191616507524,-19.75672247147486,-13.199332459169455,24.02920729766447,-15.094786474844568,-46.01560604412225,-45.35708663777223,-33.82314906613283,-42.30671686459573,-37.53970199694686,-2.911189876671415
33.219002042969805,-7.3946063929633965,-23.98618861524301,-11.40304374684456,26.969479197365217,-19.352397473182464,-46.03543953110966,-42.219409268158415,-35.86032603322201,-43.07632521381947,-38.73797133579228,-3.898956514985912
30.663915623281355,-10.43941106973216,-28.467183600118005,-9.65959741840561,29.369413648360023,-24.227867684486228,-44.997536909337214,-39.14769184430952,-38.432597879747846,-42.1555207948586,-39.38187754460432,-3.7213630605756407
27.482739030005177,-13.552075179888561,-32.65754823289899,-8.172500946915534,30.964254575036648,-29.40736845416268,-43.02523270346137,-36.44985144873681,-41.48831246584632,-39.772835731128,-39.45556722868969,-2.5346054728383933
23.871218288059026,-16.02904868205769,-35.37216002552486,-7.384158489252513,31.608558879937846,-33.93967395894833,-40.351526665161146,-34.395434654426936,-44.62266156039732,-36.74441310609927,-38.600927649942605,-1.0328939493883809
20.001263193473278,-17.89491050433753,-36.550884959027826,-7.61559292329639,31.549731295688616,-38.05232257879743,-37.28498587939612,-33.18803699653836,-47.369359542322854,-33.52749883979595,-36.58066141142899,0.47204561924945665
16.698520122376067,-19.690947096014497,-36.13101496128911,-8.141215788522459,30.638189067453823,-41.81570987976238,-34.17108726597144,-32.93941594779062,-49.45653111527463,-30.496481339516322,-33.60511195918025,1.0677770477750528
14.100157179766029,-20.66128771457261,-34.17130214568351,-8.074717949428305,28.77418258096077,-45.2218669521144,-31.349000476369838,-33.238321724211346,-51.3503097427656,-28.00077740342931,-30.742770186329835,0.5475220685384556
11.602747654891573,-20.49040039293868,-30.781489115775912,-6.860571512545903,26.236946572849774,-48.29772501602838,-29.103811185837912,-33.744833322434715,-53.346540353028104,-26.315895184350666,-28.87250622070951,-1.0307490215936923
9.298861967236007,-19.988414299743454,-26.24016197311539,-4.740373279142659,23.357445593391276,-51.06450861917892,-27.61418478079213,-34.542984371610146,-55.253237652890675,-25.601601867141653,-28.129770202791406,-3.4557004281159607
7.177458484864474,-19.229493845525212,-21.23409878252278,-2.025153941109238,20.478005503173335,-53.53203385947154,-26.764982314311055,-35.56012356318206,-57.0704016423515,-25.619122529871674,-28.147299900511825,-6.401796281017596
4.956168614555281,-18.22304881650234,-16.569755462189278,0.8515499685063332,17.92179785287317,-55.71011683481083,-25.971816374372793,-36.72359958859124,-58.798032321410574,-26.375713614072083,-28.903892256114887,-9.476372199552316
2.9334300920472742,-17.05561886306714,-12.8198380484082,3.4157112418306497,15.96395138105072,-57.60857364310323,-25.425000215735054,-37.960761139280294,-60.43612969006972,-28.0543916769293,-30.582570318971193,-12.274612999624878
1.4039413065365807,-15.813743635613719,-10.476659548838143,5.24862789701092,14.804290629950628,-59.23722038225333,-25.12478898255722,-39.19895690669,-61.98469374832712,-30.483438758577904,-33.01161740062162,-14.442436543797157
0.6668411287719209,-14.583962784536197,-9.819935425804942,6.096539813608615,14.541701679324433,-60.6058731501671,-25.052997769869762,-40.36553558226842,-63.44372449618277,-33.43904308931633,-35.96722173135822,-15.747283733926452
0.9507686517827096,-13.45281596022869,-10.677354666166138,6.071738938759154,15.035911479855713,-61.72434804475051,-25.191441672712244,-41.3878458574527,-64.81322193363849,-36.680128673941,-39.2083073159838,-16.24342085612352
2.6544046522503777,-12.506842813088952,-12.664970681873456,5.845244859409831,15.5281892441335,-62.60246116390863,-25.521935786116956,-42.193236423689086,-66.09318606069246,-39.9652605619749,-42.493439204015885,-16.526890094943155
5.107159365290499,-11.83258299350382,-15.250079104529505,5.319207011648359,16.17647486718215,-63.250028605546504,-26.026295205119823,-42.709055972418355,-67.28361687734468,-43.069550117874314,-45.59772875991439,-16.420603928317178
7.410385262723139,-11.369362645398724,-17.73611464899477,4.525013910068083,16.94963962590009,-63.67686646757102,-26.686335024754953,-43.02651438570501,-68.38451438359698,-45.80156029124555,-48.329738933284716,-16.05180240528898
9.52015953406044,-11.447282029452253,-19.719139386315874,3.5246122683365684,17.77788015740407,-63.89279084788541,-27.483870340052817,-42.77720597068583,-69.39587857944753,-48.020210887061694,-50.54838952909995,-15.20016951465368
11.179264170625174,-12.503640109573098,-21.192259446585012,2.3799488001259306,18.59139309881175,-63.907617844397464,-28.400716246058437,-41.52464444758334,-70.31770946489814,-49.717718834604966,-52.24589747664413,-13.507550951304438
12.29046198157448,-14.431087296261467,-22.169398954256394,1.1529702191110118,19.320375087236243,-63.731163555012245,-29.418687837795005,-39.46724402575819,-71.15000703994701,-51.48560440527672,-54.01378304731497,-11.119924077464475
12.971311496570706,-17.039392173393935,-22.610993818094357,-0.0943767610424402,19.89502275979612,-63.3732440776339,-30.519600210302087,-36.857119289130424,-71.89277130459413,-53.16861717087613,-55.69679581291439,-8.223637895197498
12.538760893838116,-20.079634291709226,-22.70599630261313,-1.3001454266595829,20.2607601136624,-62.843675510170215,-31.68526845861561,-33.97791403204974,-72.54600225884133,-54.71730623178337,-57.245484873819805,-5.030676499474794
11.172391697915373,-23.270079415962755,-22.620867561397972,-2.4023890640692116,20.34179112388938,-62.15227395052443,-32.8975076777715,-31.121305428087,-73.10969990268677,-56.131671587998426,-58.65985023003668,-1.763922531238677
9.10271709767403,-26.323737225720834,-22.20032635185089,-3.3391609596001217,19.973613841048063,-61.30885549660343,-34.13813296280023,-28.562183531746996,-73.58386423612865,-57.411713239522214,-59.93989188155956,1.357579369528139
6.587904191441339,-28.977601469830915,-21.237422466123462,-4.048514399582928,19.003013709312654,-60.32323624631226,-35.38895940873408,-26.5325061130643,-73.96849525917241,-58.557431186354734,-61.08560982839117,4.133359110737729
3.93023340687796,-31.02357257452786,-19.706752521036833,-4.468502670342787,17.421652182547405,-59.20523229755645,-36.63180211061626,-25.19382882512764,-74.26359297181443,-59.568825428494165,-62.09700407053151,6.3962576951316805
1.432602380256867,-32.34106270520897,-17.73001557277894,-4.656880921557786,15.371458770168829,-57.9646597482415,-37.848476163475425,-24.60851070450917,-74.4691573740547,-60.44589596594233,-62.974074607978764,8.027163767212187
-0.6242719878391654,-33.30340631209583,-15.523992145304874,-4.436979618706573,13.09565049005505,-56.61133469627384,-39.02079666234931,-24.295390328290523,-74.58518846589504,-61.18864279869922,-63.71682144073657,9.371508515943333
-2.0036891579838993,-34.1848728928926,-13.137656114286074,-3.1873678195206594,10.66855990989734,-55.15507323955717,-40.13057870227021,-23.960736364797413,-74.61168624733364,-61.797065926764844,-64.32524456880128,10.682743791770918
-2.5338382585578074,-34.826053078706536,-11.314774032185596,-1.0743439336683878,8.848881931430697,-53.605691475998356,-41.159637378274056,-23.810404077938074,-74.54865071837048,-62.27116535013738,-64.79934399217382,11.783233932056646
-2.317282455118402,-35.241309258120964,-10.696003491362717,1.6161462575328187,8.264963067087592,-51.97300550350246,-42.089787785396766,-23.828570377403594,-74.39608187900558,-62.61094106881865,-65.139119710856,12.672978936800973
-2.1430595299370907,-35.44500381972284,-11.403451151463742,4.523042178077958,9.003128308707346,-50.26683141997546,-42.90284501866881,-23.99941217289779,-74.15397972924075,-62.816393082809554,-65.34457172484599,13.351978806003899
-1.7794808649523475,-35.4514991520864,-13.319923284463584,7.225330418621525,10.918718811180952,-48.49698532332195,-43.58062417312976,-24.307106374113573,-73.82234426907416,-62.887521392107374,-65.41570003414381,13.820233539664514
-1.2399064525889116,-35.275157643796774,-16.026916092469037,9.21067896761815,13.634179498241792,-46.67328331144836,-44.104940343810085,-24.7358298907493,-73.40117549850584,-62.824325996713014,-65.35250463874945,14.077743137782818
-0.5656197704120132,-34.93034168343547,-19.0434167402982,10.019207430354072,16.70773206283957,-44.805541482260196,-44.457608625745706,-25.269759632505156,-72.8904734175394,-62.626806896627386,-65.15498553866382,14.12450760036063
0.20209570402585086,-34.431413659585814,-21.967308238572514,9.488543764035057,19.746628499882718,-42.90357593366207,-44.62044411397437,-25.893072509075864,-72.29023802616939,-62.29496409185049,-64.82314273388693,13.960526927395222
1.0219564931594505,-33.79273596083112,-24.446063434097596,7.726666511169242,22.399292660292303,-40.977202763560854,-44.57526190352655,-26.589945430159787,-71.60046932439764,-61.82879758238141,-64.35697622441785,13.585801118889322
1.8526791194344696,-33.02867097575108,-26.1798040120284,5.335024865582454,24.359472634222584,-39.03623806986025,-44.303877089438174,-27.34455530545347,-70.82116731222595,-61.22830736822016,-63.75648601025841,13.00033017484111
2.6529801052893163,-32.15358109292902,-26.962864770430315,3.124202237546342,25.402558900224903,-37.09049795046758,-43.78810476674698,-28.141079044653452,-69.95233198965252,-60.49349344936854,-63.02167209140589,12.204114095251043
3.3815759731678554,-31.181828700944607,-27.30565187990942,1.1282976936081468,26.006467606328442,-35.14979850328746,-43.01444887134312,-28.96369355745992,-68.99396335667916,-59.62435582582475,-62.15253446786119,11.197152880119575
3.997183245504857,-30.127776188382995,-27.368609474347977,-0.431896186607446,26.286578915287464,-33.22395582622585,-42.190060881614045,-29.796575753569414,-67.94606141330405,-58.62089449758787,-61.149073139625216,9.97944652944625
4.458518444746005,-29.005785943825686,-27.062378708884353,-1.4286656545027654,26.093844519215054,-31.32278601718781,-40.80529537620714,-30.62390254267666,-66.8086261595272,-57.48310946466063,-60.011288106697975,8.610738563228551
4.724298093329708,-27.83022035585236,-26.51142939415695,-1.87657624725216,25.448692468737136,-29.456105174078857,-38.68640651500391,-31.42985083448184,-65.58165759534859,-56.21100072704212,-58.739179369078556,7.223332080350701
4.775463031342952,-26.615441813048164,-25.136495863804157,-1.9786872047516226,23.927326468699903,-27.63372939480496,-35.9781330432088,-32.198597538683316,-64.26515572077005,-54.80456828472961,-57.33274692676787,5.1522135868490295
4.5759628427531425,-25.37581270399278,-23.0053638148147,-1.9059782648855617,21.559898210077336,-25.86547477727072,-32.89787211346993,-32.91431956497581,-62.85912053578977,-53.263812137725836,-55.791990779765,2.5159946007775034
3.963891528754175,-24.125695417267707,-20.28732587554441,-1.483967599042444,18.484837940874968,-24.161157419383017,-29.70730310518411,-33.56119382305951,-61.36355204040956,-51.58873228603261,-54.116910928070865,-0.46823677653264895
2.7783979750565777,-22.87945234145991,-17.180695200311675,-0.48496822153356334,14.91173656189494,-22.530593419046454,-26.685032366123778,-34.12339722262732,-59.7784502346276,-49.8164799047172,-52.34465612570784,-3.5700469552525647
1.0756824457166658,-21.651445865145433,-13.899928069966336,1.0530938023157432,11.151502435409384,-20.98359887416609,-24.100258876434964,-34.585106673379414,-58.10381511844389,-48.13269638188649,-50.660865988396836,-6.558214746831254
-0.9741371905365668,-20.45603837690942,-10.662464105020263,2.971916967198922,7.532869032463168,-19.52998988264835,-22.187460834957164,-34.93049908501598,-56.33964669186025,-45.950086883724,-48.469939319713376,-9.213289253774747
-3.1679213372262893,-19.30759226533337,-7.675284091319554,5.079842232458759,4.35061988599864,-18.179582542398748,-21.12210316792698,-35.143751367228106,-54.48594495487487,-43.246407001439366,-45.72867155332642,-11.340147759426145
-5.288933701503993,-18.220469918998788,-5.12118541826203,7.167351667407274,1.838965777613339,-16.942192951322795,-20.985513612286013,-35.20904042971779,-52.54270990748955,-40.1593770545378,-42.600692481111764,-12.780553617741134
-7.1272286443272606,-17.209033726488997,-3.1447751295836497,9.022567096653802,0.14409379182870907,-15.827637207325097,-21.17345506480342,-35.110543182179754,-50.53277577413792,-36.87812083454628,-39.329396810905564,-13.425714143067125
-8.501000849486445,-16.2876460763855,-1.7051793558639474,10.446748745443983,-0.784581018056997,-14.845731408312531,-21.62185886374209,-34.832436534316,-48.674794486969404,-33.62624884911202,-36.19926261472301,-13.379856842139816
-9.297928358713762,-15.470669357269799,-0.2515896130116744,11.288824932263196,-1.3813835675891823,-14.006291652189702,-22.35436282867522,-34.372933673874286,-46.38076227252532,-30.644941566144553,-33.50068673833812,-13.318042267678265
-9.561236364617798,-14.772465957723398,0.9920846413115214,11.55802101172958,-1.621151536304751,-13.319134036862124,-23.308984485860492,-33.74626152901146,-43.50181844999497,-28.176032657920587,-31.49833717220463,-13.005704942162083
-9.341347723337094,-14.207398266333257,1.990035687085765,11.328152935015169,-1.4411585817842933,-12.794074660235765,-24.423741361550128,-32.846783659280845,-40.250641095084575,-26.44509224522153,-30.403022383715324,-12.305790985239582
-8.593959916728636,-13.789828671671785,2.730149102784708,10.577170629318971,-0.7079881172649038,-12.440929620216139,-25.636650981998173,-31.530474858231173,-36.99048543569552,-25.634984377489673,-30.347077610820634,-11.072824932137337
-7.23664762347471,-13.534119562329579,3.2003104668856395,9.219858336064135,0.6494948350209597,-12.269515014708304,-26.88573087345867,-29.686927034736073,-34.135288313269484,-25.598905014211596,-31.269364322095498,-9.322330904805767
-5.360867851492003,-13.454633326886324,3.3884053578603925,7.344078564083247,2.5253870200504025,-12.28964694161823,-28.108998562183842,-27.511343571128236,-32.064383255283246,-26.217712192176805,-32.431788444695485,-7.2273994624274565
-3.1838389712884236,-13.565732353921703,3.2823193541880755,5.1670496838769395,4.702467617508773,-12.51114149885052,-29.244471574424097,-25.408909255538674,-31.05182615893318,-27.86776520291005,-33.803292166267966,-5.015159594206125
-0.8024460420583637,-13.881779032022678,2.869938034340521,2.7995605718533625,7.069962661370482,-12.943814784312053,-30.230167436438933,-23.895745969812197,-31.210331585945823,-30.44652115210738,-35.26657315771263,-2.9297653415046625
1.1823186730543966,-14.417135749767112,2.1391469767968374,0.7897044501896744,9.078890523815062,-13.597482895907433,-31.004103674480575,-22.78076717710246,-32.44848721924791,-33.618897560319056,-36.67075377729907,-1.1990440673466765
1.913373752266125,-15.18616489573651,1.0778317600306764,-0.07025382536994584,9.809309333304554,-14.481961931542173,-31.50429781479761,-21.26238219867446,-34.23140929009969,-37.44559203237259,-37.86495638330052,-0.00480637326836586
1.3138408420309133,-16.153425087606593,-0.2942334585914068,0.37190296252811095,8.959248282923909,-15.557110746036415,-31.716023157969175,-19.91157515186387,-35.22719436213811,-39.99733185205332,-38.72029622651189,0.5431823364697266
-0.44813697949393827,-17.193860844099618,-1.9077822841627494,2.0894837426849335,6.879384023455714,-16.69144860646702,-31.693492029997287,-18.887888495964944,-34.9683945341385,-40.18801515913401,-39.11671363140886,0.4705581847238136
-2.8520358659843623,-18.91245138556951,-4.204263459390859,4.745572422103578,4.78771947180212,-18.580914525513435,-30.71298153389398,-17.38901938050367,-33.299882588840774,-38.76950426910935,-38.52188912150814,0.08354768705294191
-5.261437643939644,-21.288376827424145,-7.174977636415861,7.903567996659149,3.4272023246248864,-21.281730738295664,-28.70971740677487,-15.091434340700289,-30.26700327706385,-35.89504516628767,-36.791759078734685,-0.3300150189552369
-7.1520465101493755,-24.16674948052423,-10.498558621957272,11.166875922244799,3.050057269750141,-24.18678150909227,-26.165269970973895,-12.14581423024174,-26.158574124498045,-31.8054148841602,-34.240020753300996,-0.8783913550573743
-8.140782480113558,-27.340285856307673,-13.799867183430251,14.172768710584933,3.67249484846252,-26.565015411179047,-23.742929103078495,-9.107593283873939,-21.4222524208908,-27.387365502241664,-31.361279499647026,-1.6715540051927746
-8.030446054815911,-30.568055217709116,-17.054813577922687,16.563366184172992,5.50135102267086,-28.45040746697987,-21.83077930890977,-6.276942056689222,-16.686038229432597,-23.068548805798855,-28.633601836640082,-2.0371357859266936
-6.166647733920399,-33.59456715558008,-20.351166721951813,18.026377063833934,8.650166540041937,-30.130666381571245,-19.950142398396565,-3.6839266971928737,-11.694202876486088,-19.114404959674175,-25.965928481793526,-1.2224242494939972
-3.102950507272908,-36.169198190578754,-23.746884941523604,18.77157836078277,12.51951821208604,-31.84310288947927,-18.006786769725295,-0.7126389854911395,-6.218404626779375,-14.95364634514408,-22.559651316179043,1.2684034619260274
-0.6828018510459515,-38.06595740056218,-27.28125758128226,18.928816130087398,16.359100147064055,-33.89196845823335,-16.001593547865923,3.5104493071321485,0.07321411054726923,-9.955776962434356,-17.755936340403423,5.690292330757984
1.893965174247569,-39.10359107344084,-30.99634750353289,18.07723221847482,20.127378046343438,-36.54625895852769,-13.932151928351232,7.527531780286154,7.375167578407854,-2.1444221448964527,-11.146448052668347,12.045051916289594
5.373856964812148,-39.291919250905266,-35.16357642174262,16.147596353842346,24.12595544247597,-39.8943089699369,-11.649924486278906,10.944644721095756,15.296783480056547,8.070031208224464,-3.1590495096425,19.771624294194226
9.860328858156208,-39.19743072174424,-40.174802304041805,13.107249155562386,28.877716381710343,-44.23487471955559,-8.544313457510725,14.493101777423362,24.558595651911673,20.300535949469122,8.13165108490648,29.225041505053923
15.291906455313438,-38.661243768265194,-45.51022180517066,8.896589086632957,34.297170975410154,-48.47661250257988,-5.038238339589952,18.109637794517766,35.465910095806976,35.04823927981761,23.432498575462887,40.393446535499606
20.892913776326168,-37.75774833932701,-50.41273432161506,4.249727452368461,39.85497333416697,-51.3034063761188,-1.8377469748193107,21.61570085495441,47.36329311172631,51.49753743144902,41.48493105382113,52.255270252583614
25.6490655402049,-36.53496620890837,-54.258398627247516,0.1698801269476462,44.935407538239815,-51.917750174034154,0.49019201375449484,24.995427181698687,59.22315010261809,68.35656433429449,60.338097744354855,63.843570939709025
28.91808625237536,-34.63793468455697,-57.06214375662239,-3.2681023939176157,49.175501658279245,-50.46986447100926,1.879405741339724,28.98957301615701,70.12141679767046,84.32242853212301,78.1582003038111,74.69981630464463
32.1928721107779,-31.605784357672746,-58.140831709026315,-6.571949474788198,52.22200861521651,-47.12234408958648,2.7963357238841127,33.03755187989009,80.62984780532497,99.5147003055099,95.39601181744092,86.14474215339123
35.573947757668066,-27.15345222132055,-57.27764488446337,-10.224421548802638,53.8197869019632,-42.04921809873258,3.0610911541589303,36.84165895292972,91.53634661422439,115.75049917760498,114.7100166173841,99.75516808107659
37.25905761534341,-21.14141759903032,-55.48729435884343,-14.724020918331007,53.96557605773614,-37.19338962820075,2.808404748866451,41.00689631095338,105.74052282421326,134.24779686297734,138.91949050354924,116.51854091353107
39.64780795454317,-13.702681965574811,-53.01238378060589,-20.484135020449685,53.01182458180392,-33.32518832921778,1.7721634800454922,44.88341019852851,122.6137995357949,156.8508705410095,168.6161851145489,136.89357946155042
44.242964220675276,-6.110498041567553,-49.706684476963346,-27.015052787543027,51.546470904028865,-29.984684746945277,-1.1180891562653414,48.573303149498315,141.29368356901796,184.85790766189984,203.65190226534742,161.06983271035006
51.48162147395851,2.567018949042904,-46.51211041885654,-34.97506542836709,51.167491506295846,-26.18546372278024,-5.056719908847299,52.60209412844233,162.05782244542388,218.5547792258958,245.9709776230975,190.63409181923544
61.10351716048535,13.473401814602767,-43.87433352562948,-45.156476393907724,52.994708583673855,-20.95421081806262,-9.080993899109671,56.469603261632074,184.76512341279704,256.94994401419353,295.1398953617281,225.95161911627474
73.4683836467957,27.258832934590828,-41.576763018294514,-58.2819236606465,57.064653211466066,-13.477134774354454,-15.43887753254603,58.48669447073735,206.69444720457432,298.300366992451,349.5521154751268,267.62248935723255
88.17676565789225,44.46097858859321,-39.37042793586079,-74.42187544485932,62.8547275637693,-3.2576754387728215,-24.78867745406751,57.76800478057521,225.60192031512452,341.04857566659484,407.50646081728155,314.9773383271063
103.77978275594796,64.02507290776884,-37.10288364285043,-92.3953437896298,69.62034149681585,8.658252320426072,-35.77287029803483,54.335427715084734,240.13792084721536,381.998677958396,463.94428246703865,363.50638772003276
119.35792444657636,84.11359766204623,-34.06696727957569,-110.34288778836981,76.51343375262513,20.865098995113385,-46.36081909101267,47.6969625790789,250.43514119062456,418.3765783263725,514.4953987259214,409.33536542233924
133.77194629340738,103.95255557315795,-30.59031260593474,-127.66291369244573,82.69209765974938,33.63679550641746,-55.65247003991135,39.23454895522627,258.67877046541616,448.8796813479239,559.2273784157333,452.50964907659636
147.27388714008703,124.54238469757729,-26.23998799635592,-144.74007192196223,87.66297062197646,46.77178045092387,-66.24632284503787,28.391041963353928,264.9616385084664,473.1847021949161,599.5254723004546,494.186986409557
161.52522506159585,146.53592912341264,-19.304304785291606,-162.34919640455882,91.33209355810686,61.40278135953986,-79.19339408862652,13.74566578872873,265.39374620788476,491.51653942690064,635.5030127701993,535.3569731911698
177.10395168164905,169.97298949907236,-8.762051451110892,-180.78882848345802,93.71148118250858,78.14879775060217,-93.62696721301654,-5.281259007644621,258.2476341740439,503.22299329270027,669.1455355775743,577.2699066178493
193.64357356090477,197.7388885935925,5.1809442470457725,-201.64637173750634,95.23018657942248,98.07395251768503,-109.60805354180047,-29.3429816562184,242.12045227955605,507.38131151545895,702.0936664925775,621.8712392946368
210.41451722037345,231.56825759267485,22.726344434080602,-226.67426711202188,95.75764189024449,122.38457681198088,-128.56556686544718,-58.985200336983326,216.7209890021295,504.4781203642942,734.7743356153005,671.1691501002606
230.1418342296147,272.4390225545976,45.19445669756351,-257.5346999226276,95.0605102951049,152.85751345772042,-153.5508547056197,-97.36353172914642,179.99251140050183,493.98068053034876,768.9182534031333,728.6617148891869
251.94390076400305,321.0705725822063,73.32704601923251,-292.95094195341517,93.1989029911174,190.20682244514228,-183.5760292739069,-145.23552277116323,131.641107312882,476.06713004900485,804.8170305616522,793.0356101390789
272.7460200483911,372.45651392484615,103.91062447644254,-328.7598723675228,90.19951251631755,230.10200565252217,-214.83626108264434,-198.1242999755832,77.31652833502449,451.8745489057701,837.9625312275657,856.4975675450623
289.94692420512,420.1148113879044,132.27054995109393,-361.0268061338493,85.98150850868115,267.3543555548986,-243.5692053624898,-249.46417879377623,25.035961845769634,423.9247747789432,864.1880515872854,911.7184851581997
303.0941291825784,461.3583875893182,157.52301507539414,-388.3738180667742,80.87305754225781,300.6995125133026,-269.1695296597172,-295.82900683247135,-22.756788467106162,395.14960006820365,882.7506576654032,957.1616181048134
313.620413610548,498.59353060376634,182.2950444105718,-411.6729343089628,74.86586508971413,333.0234027907836,-293.8630387126723,-340.3284006310514,-70.35542227740734,364.9149911782024,893.293455629454,994.681712024505
322.0198838911201,533.2457043341474,208.4609557545391,-432.20073841564226,66.39849078893712,365.33679955831985,-316.6812747119202,-384.884306648506,-120.90477923710387,330.36551457442147,896.0096787523053,1025.817216782721
327.3282695259077,566.4454946136102,237.57755614750022,-450.34579978335205,53.8202675187149,397.6033768178986,-336.9804245131327,-430.5286726257127,-176.86007523658373,288.8218042685103,892.9911733428726,1050.1346396440204
327.8606756940171,599.4499707358063,271.25165770799686,-466.3888713729575,35.988658632921215,430.8286301880735,-357.462505064168,-478.55045277973295,-240.76887872994303,239.34247196483648,882.1765333365474,1067.653514773675
322.9067060999914,632.4794543533117,310.42815441079074,-480.80916823979624,12.669778360899727,466.7921016470209,-379.64287166238864,-530.853612184741,-314.2589025318848,181.08104092825488,862.2661043533226,1079.6116730284411
314.0006056312959,666.7857870566695,355.71201955921424,-494.1128141916106,-15.724044867326484,506.96465420796494,-403.76281258187373,-589.2485886422819,-398.01104086128544,113.07794768158237,834.2978154189232,1087.9189255210658
300.6336853514549,700.8810098819886,405.5866085456564,-505.1710037584744,-48.48607610088584,549.3682296116585,-427.59841491943007,-650.598028012866,-489.818972883073,36.74066586633853,799.7807734636244,1091.6932959630149
280.23815854431086,728.4264575636316,455.0864389845992,-509.3564299153604,-84.4498136517559,588.2700895638773,-447.91585577564,-707.6374218759393,-581.4097073524863,-44.94505913143803,757.8172041376183,1083.8632827039037
252.28970659235165,744.8095407750334,499.11935740223817,-504.5190293406122,-121.88950437219592,618.9192447885603,-462.41683665838355,-754.104795461275,-663.5601987520404,-124.78800680732274,708.4828734572411,1061.1389235892248
220.19732094327628,750.0978849832427,536.0989312236379,-492.4788965078442,-157.14854281048883,640.3643200313436,-470.7638303288386,-788.7146024504036,-733.861340075915,-196.38018457258113,656.1273532810619,1028.2638043359148
188.94192981334527,747.8059297516884,565.3619868971928,-477.2451990394529,-187.24951127250552,654.9873433594084,-473.6003225738241,-813.0481478226902,-791.8187190767294,-257.09271737546806,606.447834802033,993.9609916009149
160.3717107882385,740.9917290361864,586.7799937010805,-460.36216581746885,-212.41072512444316,663.0672540884971,-472.5101483331782,-827.5548637085794,-836.3608709061482,-306.55009650104876,562.5499501325558,960.1930668208715
131.84099920602966,730.2534491493661,602.8371509052959,-439.93810639309686,-234.55521679247977,665.9859416829904,-467.9021435244722,-833.0012726741497,-868.1045731951344,-345.9010308612087,525.3176640870042,923.9030931005354
101.82715752637523,715.0088710615601,615.4281783313327,-415.7234298316034,-254.9583496744981,664.2801246171884,-460.822634710632,-830.9955024824376,-888.9419832128679,-376.48159253139875,489.96461866659047,882.8146370054683
69.40161278989035,694.4937326722193,625.7847287905879,-388.1712657287935,-274.9636647971847,658.9952357091684,-452.6013808263815,-823.8612343733348,-901.9780875974266,-400.66253876067094,453.1809179743814,835.629066345834
34.505776977181085,669.3230933523428,634.200140512854,-357.92579276944525,-295.397874310157,650.6853987820223,-443.19825852425856,-811.1010039396915,-908.984807286628,-419.9840083487088,412.2249641988128,781.2224256717464
-3.246990942152479,638.1389406703438,641.2725094761227,-324.13900913952693,-316.70477812667923,638.545713286218,-431.07376963677234,-791.5120841961161,-911.7745690410011,-436.962442074293,364.5952446280962,717.7865862782137
-45.970195158664865,600.5730579767314,648.2558323959001,-284.3454121949726,-341.0715112658818,622.8655425920379,-415.8310004333125,-764.5031249938456,-911.6665109011901,-455.51512314725096,306.6795102133092,641.0106797703647
-93.50609658919711,558.8397121842554,654.7580173378446,-240.3454129809379,-367.87129652034037,604.5449300901537,-398.20321907537254,-730.958433804537,-908.4247557859617,-473.96794918271735,237.1351892964285,551.2570420584889
-140.41821202758547,517.2578149859346,659.8431966983571,-197.47442829625288,-393.7933754323458,585.4706734282008,-380.0849327150063,-694.57397564446,-903.3357748656144,-490.59492395153757,163.17503868873246,458.8720093107522
-180.88829087676095,480.64350926806947,662.9763945575614,-160.75017222113638,-416.0460965112661,567.9364570730136,-363.82323519489,-659.8629008683547,-897.7883653040717,-504.4228634629071,93.9028785882656,375.39118348328475
-213.58289265228086,451.68901624089995,665.0564011274964,-131.23318436147383,-434.3009010457299,553.8263895897944,-350.864138410705,-629.7541648079514,-892.8474065452665,-516.1282671987519,33.576377220714676,303.9165424871485
-241.3007406639481,428.6394220880102,669.2091830808058,-105.64933630284213,-449.7418273696958,544.2366847872304,-340.18246674684633,-604.3975028027216,-889.2306289099342,-526.9604554725465,-20.042409277230036,241.52094573059094
-265.02017090794834,409.29487359678023,673.6774224072615,-83.35691794126251,-462.69503293768776,537.3266787786424,-331.5553316937003,-583.6938510126729,-887.5985104804367,-538.0368804694272,-70.14945594172605,185.79217608790623
-284.88976742993873,391.4860122902028,675.8361683008607,-63.94023077437032,-472.81953311271536,529.2586564925496,-324.9744424071032,-567.7622311632422,-888.0200522348405,-549.4451525884479,-117.82467770974472,134.55782480760536
-300.3122391216384,373.3717458253104,673.3279472036957,-46.3834970077387,-478.93991527462913,518.5892219173957,-319.04391166270943,-554.2973153570274,-886.8375760204417,-560.3439018060435,-163.55432436167575,87.1826751945382
-311.4295343688391,352.8976767267195,665.401359673886,-29.090528869051013,-480.48709151804724,504.5125607928803,-311.36607374078267,-539.9778223241829,-881.3798485321458,-569.8054760125824,-207.40712053590323,43.39825367290359
-319.40647171796445,329.65747383807866,652.0867623011618,-12.306137645367926,-478.952476783179,486.52356146711554,-301.6934195447957,-524.0575654653894,-870.4684282264279,-577.0602853668597,-249.72387373815036,1.539128256677941
-325.2082031979153,304.56596493991856,633.4216152612953,2.9919425699681597,-473.6355637408933,464.92676868294757,-290.6218108387111,-507.3330037392534,-854.3630582697206,-580.0875531033171,-289.23581694750465,-39.259837154872
-326.26442562223383,279.22420394095207,608.5842318072428,15.505746387294494,-462.8184644456578,439.65060295217336,-278.1081340353394,-489.9625711638746,-831.4000859013231,-576.7742592038994,-319.2523887186426,-73.6096174083782
-320.96146805156604,254.60895085700213,578.1895873129542,23.979739872549544,-446.22700220383376,411.8831656352854,-265.03352016842837,-472.9727428159804,-801.9766339556772,-566.2615969460712,-335.37017420421125,-96.36345402545157
-310.5581142451283,232.01965443320114,546.1079432139431,28.720203092228076,-426.0323769976112,384.70134844539916,-251.96290403780586,-457.03436367510767,-768.8549256940496,-550.6235489976789,-338.3357164002091,-107.77049759055126
-298.4873345450633,213.0636900952286,517.3482481154697,31.68788192786633,-405.56739542542346,361.1702979166066,-239.43515902632134,-442.24624019218936,-735.417213511535,-533.1625150791833,-333.5142539107801,-111.8928167864542
-286.5030254755293,198.1488704455387,491.52924693955356,33.27353428096103,-386.8424341263308,340.867585365032,-228.0384014424817,-428.9278756834192,-703.7935947089281,-514.9300024330096,-324.02680849358785,-111.43196384009116
-274.1306559302702,185.39043835917983,466.86805721142446,33.65302503827661,-368.8718630583144,321.33501344809474,-218.45569718923798,-417.17520752479504,-674.2678884666693,-495.65436985304586,-312.40683880461074,-108.86116302913888
-261.64728784799627,173.6328139971538,442.44293497379476,33.736489241488016,-351.37257111092913,302.8396292962325,-210.18419561395422,-405.11597768739193,-644.6290997891301,-475.6033812231017,-300.0768644555492,-104.89829593213062
-249.41877388953435,161.95194384224123,417.56523467479565,34.63508808656752,-334.16628204856534,284.5265910218677,-200.38602802293462,-391.0280175967546,-613.454233258979,-453.8588760056291,-286.63700357916514,-98.97652727484456
-237.7977210883182,149.99400315644925,392.431878379055,35.5019020210093,-316.86114374890894,265.98045128465856,-189.90469266123546,-375.63747766895904,-580.3712163884793,-429.17476141439056,-272.4483259765457,-92.34004960842503
-226.5447485197983,136.74592236978606,366.7900010714038,36.50763654948969,-298.4905697658005,247.06321010445026,-179.16726493090027,-358.37328817545676,-545.0240903615431,-400.9913925186356,-256.6107908879849,-86.00589837075631
-215.01026805270885,121.43028800410502,339.3830938794672,38.431468925038644,-277.80199140990044,226.23718926387937,-166.35105781335915,-337.20150755859686,-505.0117148129284,-368.82355422886576,-237.91922417790647,-79.18541135708983
-203.33487830168633,104.29622579504758,310.5902079415737,41.0437596818756,-255.5270999131726,203.76775405002581,-151.55530409917264,-311.89327268853776,-461.27555594178557,-333.8501145814771,-216.3025160878733,-71.4583056131969
-192.21843050212374,88.26208970767402,283.68265326914116,43.8743038560624,-234.5837977780884,182.75023961970692,-136.3499258842421,-285.27482780559694,-418.30128610718384,-300.500674066574,-193.7893122758178,-63.38277513103185
-182.32623670947032,75.98131193489644,261.48430076511977,46.376044597884174,-217.61089118803284,165.96207870049466,-122.79840356222303,-261.08919433445226,-380.802539332557,-272.6048688354149,-173.4052921122002,-55.72506378518119
-173.60041290870868,67.67287025153018,243.70938210748682,48.047116481903686,-204.42511962335993,153.35619524295726,-112.11585043886589,-241.2708296542678,-349.71664286679334,-250.10376278237436,-156.87805858662068,-49.090737184358204
-165.37397034611786,61.02829417441899,228.55043093222775,48.61583179122681,-193.04017803409806,142.8936318219603,-103.57995963165195,-224.0126367296525,-323.74603894724714,-230.47943459165617,-144.1081561137562,-44.170257705630775
-157.48125673210234,55.50060964296608,214.92690575442793,48.47529995599598,-182.9821456372174,133.21491103695644,-95.78480805340587,-207.8528418222777,-300.98771004515766,-211.88656975587492,-133.32252568809054,-40.92698519537316
-149.39545269125665,50.5585202090715,201.05027090008844,48.21215710141041,-173.44189356373136,123.26407556480171,-86.57976592459818,-193.03623833605343,-278.95635368715193,-192.4819856352733,-121.37227702621567,-36.811894545136965
-140.37300225117542,45.719854550947275,186.803248328235,46.988925899328024,-163.39767046896122,113.31498027947146,-77.32671339365334,-178.68335630091133,-256.63353767493936,-171.7671859138636,-107.55262953677993,-31.675849775171628
-129.7351802182966,40.43144546667281,171.78525731681475,44.02160828923934,-151.8842284552602,103.01360985049632,-68.38320763594857,-163.34306270878733,-232.89929845043662,-149.55000423174351,-91.58449175270925,-25.14415101702707
-117.62791937657312,34.87558243267995,156.03520715314698,39.557277172736576,-137.92367773888327,91.87630959015951,-58.84952646524653,-145.92700794647862,-206.70402833129083,-125.69064350221925,-73.51156011243893,-16.644196543545604
-104.3843439244738,29.592924562472035,139.63612548554738,33.910027757558055,-121.74318654412673,80.07679906101203,-48.98989218127099,-126.04077597427568,-177.79374374681538,-100.28792186924147,-53.66019419212353,-7.18692294021821
-90.63801043928834,25.692008466203333,123.56631432315953,27.40531314301552,-105.55113129630536,69.74303545724524,-40.1285674567298,-106.02441256277416,-148.32599266631405,-75.2326557816632,-34.23788383867577,3.4074949627884052
-76.96905674707523,24.032522693274586,108.67621039912956,20.35523901709894,-91.07020366204233,62.225658613825544,-33.19194804758263,-88.33939385230224,-120.66762009275953,-52.37018037816597,-17.022333650913424,14.376945741718373
-64.1858141148241,24.53080399967257,95.5753364634038,13.327293755255596,-78.69652793728528,57.21846789219762,-28.183730388231197,-73.83734110227124,-96.17738647630904,-33.29376701471119,-3.3176183725581723,24.238248993085108
-53.19639408055082,25.956322728519808,84.69673954358768,7.023740350476146,-68.38132576332464,52.95003961671682,-24.017997831380853,-61.23385930765289,-75.82326537771041,-18.296031377604777,6.154638942118254,31.37767918112695
-43.84630100037975,27.79395701401154,75.84133646842383,2.0238569098819426,-60.16219201243348,49.057005358909464,-20.439513927089138,-51.16849589677622,-59.43999989535223,-7.411685922006654,11.823809757370327,35.60793089448134
-36.72078207994855,29.726548053733495,68.96272103207593,-1.574203431821843,-53.84387264560428,46.11389402256327,-16.645038493275933,-43.35932214801869,-45.87165039057618,1.1679175595272682,16.04280233019199,39.08909678730106
-31.51794056048675,31.503901440484697,63.66738840709331,-4.399648415280353,-48.99082554596134,43.775997907261626,-12.833272607458639,-36.753693404229125,-34.609203309610166,8.260179209217313,19.30870154666445,42.23794192395508
-27.20979058883131,32.73937813059638,59.62462526218769,-6.842092103338473,-44.72948353865468,40.57034510331869,-9.758845429872963,-30.52450209988274,-24.04184391052513,14.999040888522359,20.963560474074256,45.25544998923897
-23.864948442153036,33.00464372449278,56.6615640513719,-8.520402467376698,-39.7446875602127,36.97650427209601,-7.388469435049046,-24.38198023919358,-13.41026085105841,21.956343352387194,21.604026758144755,47.04128522794872
-21.31053191276078,32.07093696845004,54.213915835223816,-9.750868787328727,-34.55010085268623,33.783036885261026,-5.594866737468692,-18.080448525706743,-2.7548330036424886,29.94391691227065,22.19028481371606,47.27579104012602
-19.230313445528736,29.890905083388134,51.5997662599093,-10.037317513824746,-30.506756555872926,31.43062961148007,-2.756991079155341,-11.566787009092877,9.062914289188484,39.128230425360925,23.920062918818076,47.332127462014796
-17.373625492444262,26.569221726213073,48.211098886209584,-9.345270093319414,-27.74227374998918,29.45392149979034,1.4621595319695189,-5.089648906037837,21.484243994476856,49.0095585940544,27.67537838649605,47.06191631694128
-15.926882408857637,22.207345843942676,43.76688657872546,-7.725422042905848,-25.37969054909172,27.076888098406926,6.544607009171159,0.918912008370171,32.801854949260814,57.86212174564935,31.715308767403258,45.97310776414315
-15.11879289150238,16.962565985149922,38.248706125663375,-5.322117296114811,-23.207202322710145,23.722437199674005,11.948135213713613,6.209755253728872,41.8962943280676,64.52201877867446,35.04464757277492,43.97374502187631
-15.103919970049901,11.473865026475323,32.60308987856297,-2.452601265229532,-21.547133616494648,19.589776811254524,17.376016858814182,10.85199913183169,49.16792909778633,69.3854750532164,37.8906878959624,41.87184428431101
-16.434107845161634,6.558677727203758,28.619459204730447,0.5242242940175856,-20.71401308365057,15.615998552398196,22.940327840298778,15.592180476985959,55.34132759177555,73.76226506544481,41.040127802740244,40.98931262522001
-18.5005718083612,2.922000386306536,25.870709275570334,3.263371121320233,-20.15738070382031,11.611958987359685,27.921375436846574,20.070924309067777,61.31759158731984,77.85279225901286,44.0596091289035,41.63733386326567
-20.211136514742975,0.9425489345521783,23.867610888426498,5.439626235791366,-19.08799512866426,7.785566147204918,31.204948266833526,23.920745512556095,66.7603181722261,81.67830476358267,46.23593719974542,43.62345330299422
-21.1116428215646,0.14103034155959904,22.215250746156016,6.774335584410437,-17.231730017643713,5.025487852725746,32.835011658855365,26.75370779426703,71.19006033896585,84.69032947387768,48.00363667262718,46.03429862557368
-20.83476205692932,-0.3132087637222867,20.101998279522377,7.09821773596741,-14.733583263264336,2.842918795645801,33.105246380346216,27.774254630827272,74.32941930070228,86.76337530453657,49.394074195549365,48.30453374147692
-19.17410350807586,-0.7578588334163214,17.742678123287988,7.095871216091837,-11.85396658616446,0.7932186392208678,33.33355376310283,28.44163600973843,77.56031390659155,87.88231986555365,50.51663661595012,50.3213265152217
-15.799298071176963,-1.572305176037844,15.432666754788443,6.879616418817022,-8.718017040187988,-1.2599336552275417,33.30771200314484,29.902762902340328,80.82882177000829,88.1689933225689,51.30881943633358,51.860244169150974
-11.736952271690825,-3.180098400638599,12.223312015181364,5.784874549835877,-5.258021268497032,-3.462205311936941,32.92069568064835,32.36444123925321,84.26444488091511,87.90049982618712,50.94809161513513,52.80115288015304
-7.621945403456266,-5.7504564148530335,8.143854772783016,3.812186513969209,-2.0419655953937763,-5.84078005328638,32.22944578737952,35.77941835033562,88.17394063527536,87.42908206866923,49.73306952753046,53.180432124474464
-3.801720430243222,-8.869107744403664,4.206065660682725,1.1620632095036854,0.3467348229214622,-8.164316926330685,31.290903315104515,39.743361652359454,92.53311837948058,87.07264289904742,48.04620258135401,53.15481715721444
-0.46926487657219695,-11.977299679530915,1.1211190993035416,-1.8932593299123255,1.7806380759338936,-10.176420057950509,30.16200925559133,43.79959019380658,97.16399966618337,87.18729046779845,46.361827600715515,52.869611056935355
2.2826786716177594,-14.566009169351673,-1.275970647644499,-5.043388921558289,2.8419078542192437,-11.604574142488673,28.89970460060067,47.5267649783691,101.70426123204925,88.15865637186471,45.27457000899176,52.3703050859076
4.486706014331503,-16.402525293799044,-3.0501089143035642,-7.971650009531004,3.8645411545358,-11.875857740742958,27.560930341904168,50.141972510375126,105.5493078442887,89.25803929205358,45.219882047752435,51.70374874903382
6.309008155520132,-17.908612766224905,-4.260146416427233,-10.385260230223139,5.055663376000666,-11.417589274606598,26.20262747126617,50.918324916494385,109.27254857473963,90.13411937554793,46.4109627874268,50.92767404860297
7.818292345451482,-19.45036979714314,-5.101301368813438,-12.043810767368996,6.654274822734806,-10.788895372758361,24.881736980452843,49.53546599681249,112.80918905869476,92.4918431744627,49.06538692504273,50.099812986903544
9.138191258349252,-20.818188408176866,-4.879950995533363,-12.786050496706594,8.348983108602624,-9.875775939134655,23.655199861230358,47.741990410557264,115.9776024759667,96.11371799992503,53.12447634157343,49.277897566224055
10.343121358771896,-22.01206859931881,-3.6143545010090747,-12.64092662339317,9.452004364756249,-8.764834504346254,22.579957105364883,46.08851973093988,118.6170394472756,100.17619246693539,57.73543503447672,48.51965978885528
10.542389164151245,-23.032010370572607,-2.287988154379491,-12.271116295035426,9.548627404176841,-7.542674599002112,21.712949704624407,44.51482251016387,120.65928316029022,103.77527692760214,61.78624918741207,47.88283165708344
9.832393476168363,-23.878013721941898,-1.092102456776047,-11.60934043182533,8.87271606394097,-6.2958997537134564,21.111118650773278,43.35552017580085,122.04626327922233,106.76890035615997,64.79431419698813,47.42514517319796
8.475584110503405,-24.550078653421224,-0.9440900321478694,-10.691583297708348,8.617380902689547,-5.111113499089697,20.824486920686468,43.36876985204799,122.52512094631129,109.84080065379021,67.33032255214403,47.09863180303819
6.767709821779135,-25.048205165012405,-2.0261150585829455,-9.59061231936903,9.241036042401902,-4.074919365741152,20.930612326439586,44.59441212495767,122.13551273763733,113.06245021811355,69.50348340696473,46.89955898091648
4.974196659391964,-25.37239325671726,-3.9845283884187666,-8.37919492349829,10.70842490632458,-3.2739208842785956,21.552473262308922,46.82900290566067,121.38621872506701,116.10059224420456,71.23550784469535,47.287807073782005
3.313407290086616,-25.52264292853215,-6.2125913437757845,-7.130098536784317,12.646222815839792,-2.7499055929934,22.776209960922642,49.71560623316873,121.32575298114898,117.99795419221118,72.3268163011453,48.79955394926856
2.0031600379152223,-25.498954180460714,-8.08010194790404,-5.916090585918937,14.567048515396891,-2.477848009462832,24.513135311859514,52.80748768977901,122.17939193114216,119.06547591109847,72.95981018333077,51.44590747116854
1.2981000135659997,-25.301327012499314,-9.241309739512872,-4.809938497589428,15.959783843299192,-3.2591145053056607,26.604915485462698,55.6354338038891,123.7813435019525,120.75030511170189,74.38611842345836,54.95601654133861
1.5206193745998462,-24.929761424651588,-9.93184248754551,-3.884409698485797,16.86033947107626,-4.9962486928197904,28.879186343947367,57.77869744034979,125.75871149697014,122.06073108770488,76.67377400407986,58.949464774038915
2.840677185798995,-24.384257416917535,-10.42011244087007,-3.2122716152971407,17.766110911161377,-6.855004395405558,31.166359118860782,58.93956917824653,127.64072842030328,122.32670526288075,79.00936261302377,62.98148256584682
5.287243134327582,-23.6648149892917,-11.030057296904488,-2.8359381163245416,18.663243700421845,-9.140979563537257,33.31775338432635,59.02157467617326,128.96675986069204,121.32378280430112,80.7375456778218,66.586492451509
8.871094244233973,-22.771434141779537,-12.47349723262596,-2.6714898981654187,19.756247951240766,-12.011350722321367,35.225057326193564,58.304173605529286,129.36099000877584,119.75091051580057,81.98035071166578,69.31998774571821
13.370816472826846,-21.704114874382867,-15.596381933772136,-3.3926722239102673,21.725955463802165,-15.236729915553042,36.84111530699738,57.398794346680006,129.6754197739865,119.07831201480258,83.30186869727368,70.79874447082511
18.343166222468426,-20.462857187094414,-19.946439826248024,-5.092254360355582,24.1670674800298,-18.513851913961844,38.21952993108789,56.26860248338744,130.41698284301492,119.55279937419073,84.45074974071213,71.0065540376163
23.23707731590912,-19.047661079917816,-24.660280214478917,-7.563451741003519,26.54561613475198,-21.511204697355424,39.48536491804407,55.031020303389596,131.57635527511047,121.20293631022287,85.17673411800934,70.47692810439321
27.505285102583002,-17.477773458618685,-28.785975854467324,-10.46265562550434,28.29850434029322,-23.93605136704764,40.71798670209864,53.81522958340429,132.89694148097442,123.88029380430817,85.49023071489137,69.65975789589356
30.71356769583872,-15.97263205298077,-31.769499593276123,-13.378603803234,28.97756144144205,-25.842760287061537,41.880816498545755,52.75041210014933,134.14263455213768,127.42338604661018,85.99066509653494,68.60553309778697
32.64760434114214,-13.971064215536899,-32.77618527033883,-15.896465020779033,28.42741493424819,-26.96214227525161,42.95797552647127,51.890769175835885,135.87847165918902,130.68679241055543,87.06164658532452,67.39383350359003
33.32436098230937,-11.375548814901776,-31.918991997941703,-17.656837133353292,27.154884707092606,-26.623937229521744,43.949463785877015,51.366869298284655,138.16422930755834,133.45418543392407,88.31892556858566,66.1538931491541
32.83316811959958,-8.341260297222107,-29.545294961357286,-18.409658980117456,25.776318293595978,-24.566675380595825,44.85528127676116,51.8989914171525,140.45300346440672,135.77325432161524,90.4270845868432,65.01494607033192
31.44267374861738,-5.101386528751391,-26.270499182983258,-18.06303598341492,24.314450179552296,-21.861527373463105,45.675427999121894,53.48954144272102,142.08178803216833,137.78750040667546,92.90534680676501,64.09817649238994
29.606065037756707,-1.9312091240335576,-22.780503143250826,-16.80370652230522,22.960178340135826,-19.038937075831655,46.40990395296467,55.882617627243235,142.80982826084073,139.9682379252099,94.89798607687953,63.345023042963476
27.634936155360265,0.8848020675322914,-20.25678476734538,-15.476724536963047,21.87286675426367,-16.39847276053615,47.05870913828403,58.67277732185721,144.16365766261333,142.9851178803292,96.95679136493163,63.44022016559302
25.840846426890494,3.0828803166550642,-19.23669048069678,-14.269744005534449,21.250807848867225,-14.290271753218803,47.62184355507998,61.3922800543769,146.34139593437794,146.71105139150768,99.33716038692637,64.68985138867356
25.18505766720773,4.446839210710095,-19.792620613292456,-14.080734895516798,21.67532099317941,-12.971906768414556,48.09930720335797,63.59157912920091,148.728620411026,150.86977385900718,102.04234316993552,66.85070404890666
25.854434446329833,4.831935691852777,-21.780504937154546,-15.08724571894345,23.195719962497606,-12.573326795079993,48.49110008311254,64.91306174935926,150.67863883321297,155.05844392528525,104.97173760748228,69.44025616993349
27.57145089433834,4.234370837379174,-24.860501779437982,-17.018539979761044,25.6816903660947,-13.014455217790783,48.79722219434552,65.1580376606853,151.99557728104446,158.72245766838932,107.81830569101294,71.90677969584613
29.815522209526534,3.362076830066144,-27.963717074529995,-19.37343870686891,28.88437114879889,-13.509712516394757,49.01767353705873,64.31112858137203,153.1934699038702,160.78273175515824,109.8482710257822,73.74760925216742
31.997411183048825,2.2755828275221575,-30.672086362224945,-21.590571798304154,32.47726093264464,-14.13677509232366,49.15245411124852,62.804889223130886,154.12749790752605,161.4388197944536,111.12503626502985,74.73377846599942
33.5491855774344,1.0504935915432725,-32.6674774504736,-23.133502486562065,36.087005260883416,-14.897733605454505,49.20156391691853,62.22894051087678,155.16831528402145,160.8629231454961,112.22664769093353,75.54833473078452
34.47966563137197,-0.1838834811551351,-33.72525399856568,-24.040664197400474,39.34524923342724,-15.722784773661715,49.16500295406877,62.70926619927923,156.2298564376597,159.32438000450384,112.4671950443826,76.36402346622572
35.34912948571946,-1.2982409938758792,-33.83042047728304,-24.87773841593753,41.94780598992929,-16.542125314818804,49.04277122269559,64.22612578773078,157.15348828486458,157.30446809272235,111.66640196634035,77.29134910646007
36.230226490240966,-2.190236035386988,-33.6371810054934,-25.717789462350993,43.716648249822356,-17.28595194679974,48.834868722799,66.59091361968058,158.32650558973728,155.21520620224237,110.81095393657233,78.99449293223824
37.35616701912295,-2.8769298182869534,-33.175820248783566,-26.814183589446657,44.74443384427468,-17.88446138747713,48.541295454382634,69.48437380070209,159.60748706433515,153.40029772973958,109.98294953452114,81.37250733272049
39.27940210430461,-2.6230728627397184,-32.43319737335514,-28.76685673853899,45.44060502019238,-18.2819963348461,48.16205141744649,72.50966847701602,161.37236962888528,152.65486999210043,109.25081253642475,83.91253120591955
41.56033924693293,-1.2784279657334991,-31.471259092881155,-31.18928297454204,45.721090396617,-18.41813794666359,47.697136611986934,75.25445552671772,163.61733520915004,153.24645929194503,108.79903738759822,86.05494949021295
43.62677229973997,0.9503911250958481,-30.35195212103099,-33.551678922269275,45.63442351604226,-18.113278060470293,47.1465510380076,77.36197566376177,165.9610917907612,154.9533387863521,108.68388544367917,87.29251968255448
44.901302182277504,3.6853425712779426,-29.13722317147767,-35.29739756427625,45.252239053956146,-17.183599604079063,46.510294695504854,78.61114895461833,167.98268090873353,157.351304227328,108.91275301315,87.33890662244812
44.95453481394543,6.465817373302343,-27.889018957890585,-35.98756642551234,44.6533834351867,-15.659279810952285,45.78836758448233,79.09629586005212,169.59369240943852,160.24401413078886,109.67121997904633,86.39089835318873
43.68872650032063,8.830753784188346,-26.669286193942753,-35.478650176859446,43.90942285943129,-13.713373813015096,44.98076970493639,79.44864299374785,171.22574494930996,163.5279325847505,111.1561544853439,85.22204471810164
41.70486255227115,10.394005206899237,-25.539971593303562,-34.28592799737635,43.09014615864453,-11.554547123884731,44.08750105687068,79.52109535983436,172.4228962395846,167.0573815716134,113.45129184662164,83.84331660904172
39.78473949008185,10.912961575546433,-24.563021869647855,-33.06445604739747,42.26534216478376,-9.406229968630214,43.10856164028519,79.31737465881997,172.25462757600508,170.7036608285689,116.73441073683443,82.37947143177735
38.10033431408192,10.344452900675606,-23.800383736643198,-31.85140318669619,41.50479970980632,-7.484144497399939,42.043951455176284,78.86979726241225,171.44603556210677,174.426162581276,121.02625132881076,80.98138821755401
37.087905669412066,8.838035170165313,-23.314003907964434,-30.67249539446675,40.87830762566409,-5.972204882919414,40.893670501547604,78.21067954231512,171.64475608770954,178.4966427057734,125.61605930616224,79.79994599761449
37.12428255559644,8.003074922538872,-23.10898936193007,-30.402214715291848,40.38337238715212,-4.996790301846886,39.73445168243052,77.37233787023251,173.43781161883635,183.38771793041087,129.5709808109732,78.95454750291174
38.38801849491938,8.32403112881184,-23.158480191108538,-31.333901055120805,39.94390574658155,-4.563632905812483,38.74547200979032,76.38708861787563,176.41611582133737,188.70064536129212,132.52835303699976,78.58624836882564
41.03916386072888,9.73176922048333,-24.117953969085647,-32.89599013252155,40.412082383440975,-4.472494507062038,37.21283934999883,75.28724815694477,179.91532490021382,193.73757056812065,135.01397405859007,79.23981096472608
45.09399316864801,11.901751633324238,-25.97200481846994,-34.86927709009797,41.895710040003905,-4.561226669379266,35.09097333152749,74.10513285914749,183.52639264943718,197.89519333592125,137.11377760849155,80.9438584413765
49.75827700931768,14.344724782686171,-28.531245787075022,-37.16138377555944,43.95963922945066,-4.989024752712794,32.49563284229225,72.87305909618954,186.8835224078066,200.93251403030627,138.94470250011182,83.55762254760157
53.93436586890675,16.52745020321163,-31.51564802446046,-39.707668171849946,45.97719626532216,-5.965909416609065,29.623512323410978,71.62334323977302,189.66873692988884,202.70751030357314,140.55083980516702,86.83504992690723
57.02084049595942,17.987948480405976,-34.59348590953414,-42.40070918489073,47.62225318035598,-7.573600789029115,26.72289903815181,70.38830166160733,191.6607282920777,203.15290684595675,141.95869943342586,90.47306025209718
59.53027886739619,18.365282230550292,-37.41974789342021,-44.86938266737525,49.491148333507226,-9.801049135966423,24.06677050960934,69.2002507333982,192.6063297369201,202.38953124361433,143.31114852096835,94.10833911296595
61.60618168050678,17.87401705458069,-39.67401305751264,-46.67382434195679,51.62598765042003,-12.197207996661291,21.92833212696496,68.09150682684594,193.52859478855135,200.7571245737554,144.45661594061676,97.36628924798697
63.42788366320747,17.408033627163604,-41.09779338678891,-47.43281296384703,53.857138312339885,-13.775004006888594,20.558994920462283,67.0943863136581,194.7556444533784,198.69359457934297,144.62030312931984,99.9259784193955
65.12464312386874,17.89427452230484,-41.531341758322014,-48.402871728585524,55.94723865564265,-14.276791145172865,20.168793504995847,66.24120556554772,196.02839960163328,197.19996689672007,144.15511707936912,101.58528978621143
66.77785399439927,19.44314566592402,-41.093603864956094,-49.920283585162906,57.90939433046697,-13.609934928620532,20.715280465266915,65.56428095420961,197.6033314595188,197.06915174367623,144.05872453030952,102.40583986759884
68.5271393909934,21.76040728955195,-40.43730967261945,-51.51324682562063,59.6174259834861,-11.834364617609026,21.442832243530574,65.09592885135135,199.28822467848659,197.73576589654658,144.7643562700532,102.80052366309064
70.21488112368024,24.434369186703407,-39.46595985936983,-53.28231194704313,60.450236866301566,-9.237257936386413,22.434474308880453,64.8684656286805,200.9406273845434,198.93418256328005,146.08938496508472,102.70801537409807
71.04023102021893,26.96393474372053,-38.24707084019792,-55.250127696752315,59.88922455327611,-6.38145188661656,23.604758030793164,64.91420765790645,202.32014662987967,200.82817743297528,147.9750912344016,102.2202697409839
70.46981660937126,28.856020373923457,-36.86551014557335,-57.34279852766849,57.764024103580596,-3.86238110172917,24.84900017396285,65.24931978221684,203.25903803585425,203.67055010853437,150.32594064356817,101.47853847099941
68.787397780834,29.734409673817936,-35.406145305967584,-59.308716843035654,54.60631472122532,-2.14958630309593,26.062517503067284,65.68703732842005,203.9913691728707,207.48477938596443,153.0684242030984,100.65203877957538
66.91075353610722,29.4600423012962,-33.95384385185207,-60.61888400897715,51.58543624093545,-1.465735592699275,27.140626782786057,66.9044188114749,204.64916121963688,211.21243621670692,155.22183608498108,99.8082566257417
64.97699115093928,28.464893427584684,-32.59347331370191,-60.811515223123024,49.08157468311583,-1.4827146285060735,27.97864477780422,68.98866859847658,205.28337643205668,214.36225516288687,156.2142008847295,99.00068115930753
63.20476317350949,27.356462219193418,-31.40990122198673,-59.75845352231772,47.32494430059705,-1.6483591640785562,28.630997110318276,71.66328300640998,206.29151174066646,217.55096300863352,157.8774338937037,99.20507949726107
61.84084427210473,26.119219285292274,-30.487995107176175,-58.273482162458095,46.82309352271841,-2.127227063459486,28.688446664778894,74.55259434075015,208.7571950801248,221.20720820448605,160.94742612835944,100.26947778910153
61.23024245073975,24.916681600489028,-29.912622499747158,-56.81634063027377,48.18399931877684,-2.8660047272287557,27.66618007030047,77.25704852112904,212.49989495867885,225.03127251908336,165.1864293256449,101.05250161897311
61.668990160314934,23.86226018076377,-29.73651449105091,-55.494126514528034,50.00214032130043,-3.811298276373236,25.747832147106237,79.41906510139233,216.31237673998294,227.84009368352417,169.54916616048467,102.91400228488419
63.27922313617091,23.051502666936358,-30.008320337063196,-54.56534016202477,51.98764542465142,-4.90971383187798,23.221470345164562,80.7794796841099,219.4375426011793,229.51334177857552,173.61394147054125,106.29300062353104
66.08542000597663,23.289340840801742,-31.205998279996493,-54.67162666953209,54.516424834666395,-6.107857514728039,20.4372429255709,81.23215931410414,222.18385978603146,230.45216949069436,177.02015556344304,110.7640464941278
70.01837823417009,24.69126140096887,-33.325657640725694,-55.9138476954231,57.49417489899497,-7.352335445909375,17.76512819821255,80.91915033902842,224.49061208109742,231.1757709509293,179.41785622209682,115.70202635972782
74.69043299532859,26.951778905277024,-36.21677567706138,-58.21103040238995,60.73937568223664,-8.58975374640795,15.552784815778068,80.24345471148808,226.19370931206686,231.81976299090547,180.43039371038867,120.4036005632097
79.56471253832024,29.55096195457918,-39.636891536663825,-61.34630176959945,64.04628295195835,-9.766718537209272,14.083503124020353,80.33264030207101,227.07036665018677,231.88912480222643,179.3106338627549,124.1989191632174
84.23537082158873,31.908052862692784,-43.26498181368879,-64.97724863372423,67.22216590239805,-10.829835939298391,13.534257568357134,81.35815116153572,227.6242197242991,231.87070536874853,176.6720609359827,126.75825041661301
88.32163712858528,33.51603340234033,-46.919238593378395,-68.65080202059653,70.0861528671594,-11.725712073660361,13.933860156768787,83.03728868979852,228.64498380460282,233.29368735792832,174.6841294978185,128.40116613850114
91.51318701743185,34.05713662723247,-50.469571554098366,-71.89178439443367,72.88131502584838,-12.400953061282053,14.719023144694802,84.89609293484864,230.46574865116236,235.85195777866647,173.47105762903175,128.33476084784888
93.69726193606584,33.65763595734461,-53.49636732622275,-74.30003276041043,75.69316953013458,-12.802165023148518,15.476923135251127,86.29849392361393,232.6968178379011,238.5663181372729,173.4361676230128,126.25485283362923
94.8342823790772,32.840306712279926,-55.35610258985798,-75.64571359664478,77.51515877622114,-12.89965265457704,16.30487406901011,87.52892378732395,235.13708986762322,241.43446871741799,174.76896198704435,124.85189681722841
94.95836715155383,32.31600540857289,-55.77526473869875,-76.03039627448379,78.43255361795582,-12.82055170108515,17.093857395209852,88.9479436568381,238.6221603642134,244.4145129260378,177.44838298887225,124.93008926327593
94.27335052113631,33.24472864288509,-54.91221976489214,-75.94493592374238,78.95525535377783,-11.9361404936285,17.74269858842672,90.53299445862649,243.14390722264216,247.6221443552704,181.31506944518333,126.24397530660099
93.05056998083637,35.8949666632725,-52.42112390670263,-75.49014428998726,79.01356420842967,-10.17666509638002,18.140150266404817,92.29607035539448,247.91558678967885,251.4157276901642,186.16104605955934,128.31161800656355
91.4542416376953,39.94381281641836,-48.5954306611402,-75.08078884098359,78.6759858918249,-7.70261883524654,18.091692180587415,94.24468165377039,252.05546611480167,255.3750860622722,191.49725350442168,130.46149547386403
89.77763149724888,44.65235651434705,-44.10883991528499,-75.16880969293652,78.05117458869245,-4.750223585562708,17.403904410428368,96.30422502782858,255.08980503212115,258.7504338836425,196.7326080867133,132.07105315654417
88.64051819627093,49.101727389062944,-39.573881007056116,-76.06330828087175,77.26755887154377,-1.602512906222728,15.923551695648712,98.2315482386748,257.23739774913156,261.16206243622764,201.60233649803922,133.0639349573321
88.51942582944139,52.442545985071774,-36.44993510800305,-77.62950374065713,76.43878595730621,1.4398767449465595,14.238086039238624,99.51282658878517,259.30660724668815,263.78383238736205,205.22571165402587,133.65107718591116
89.63848941347896,54.144388756436456,-35.56349394185054,-79.44116870617472,75.67387815769325,4.088206714588068,12.69868327441145,99.70651955227913,261.7253368676902,266.40440218929507,207.83863103171734,134.11203919074478
92.31890636006756,54.16763286852256,-36.53791307989195,-80.90147391323353,74.89520675609401,6.095428775988694,10.639867354861053,98.71091111090755,263.8330203116584,267.7751367512101,209.8499602456377,134.89538104042458
96.21568507261327,53.35402851569779,-38.4475125144636,-82.10865119280243,74.44830986830675,7.286269670015827,8.227690445142798,97.36326735210969,266.16600265638954,268.80920044336744,211.6632502663506,136.89504315330396
100.12286408011278,52.7568211728958,-40.484981239966146,-83.72267431893033,75.00330083506105,7.647512294392072,5.700324755554902,96.02211574841749,269.21329789614174,270.55475698203736,214.11355918643676,140.9044179600105
104.16387529327403,52.90713961254187,-42.80284358854806,-85.15566584629414,76.52843483428023,7.812863400671176,3.2816137763402367,95.4042202306955,272.2290671598912,272.61570938073964,216.8405637030919,145.7172653590369
108.29075658434522,54.084681403232025,-45.10704200325381,-86.18482799908816,78.73650188539887,7.702580240928,1.1129464081313927,95.9597650292144,275.0204780191325,275.12690737016055,219.59750458318103,150.32562877389682
112.08268576844785,55.99404810112901,-47.23277764582053,-87.79146230902006,81.2009678770537,7.307729252052923,-0.7892314460368652,97.58684094846467,278.91777793325855,277.7717777095013,223.00355757844954,154.61705251359308
115.13290063239037,58.10893674204817,-49.11594596410214,-90.29819635145395,83.45940902467373,6.669180997836975,-2.3930879915624246,99.92236355415116,283.96868979306237,280.2274417352073,226.9731217450717,158.34320862076856
117.27847056485189,59.848466658528196,-50.711495655985345,-93.34379156114755,85.10423975792764,5.827806042071643,-3.5340934927553462,102.46577654598696,289.7001507767127,282.7059087827165,230.77585891042418,161.67269704298997
118.45459472566654,60.70672583832129,-52.55730367442993,-96.06636449019243,85.83012044868337,4.8244749485484135,-3.6529061859655485,104.69427655015352,295.90672158742746,286.1486268327826,233.028419410497,164.76867033393228
118.83300998768755,60.43082447751294,-54.43642556833947,-97.84156339709625,85.51855950992558,3.7000582810578635,-2.9812984782292915,106.1695593315053,302.05306248566376,290.7488901174456,234.2794809409861,167.75414057053877
119.65484469442526,59.89860960174519,-55.71476515445465,-99.2023955711229,85.07661810045829,2.495426603390115,-2.3652297861372062,106.56084728428868,307.2203683838725,294.4697088124849,235.24032835349863,170.62437158951207
120.7923038705485,60.06780817503204,-55.94056216134595,-100.87004875354614,85.26206224963062,1.2514504793371088,-1.608582817560091,106.06914954366403,311.8607741872802,297.9093141491867,236.50357421408535,173.30315158465964
121.71926952963986,61.37794825646779,-55.16540765576974,-103.17299073323011,86.50223838807506,0.00900047268896742,-0.7822232331927808,105.76280497973858,315.9977300605351,302.45333581478553,238.64127754293804,175.7451054674284
123.14616109322742,63.42409809493074,-54.30276796992803,-105.17243100142696,88.36557413844548,-1.1910528527632778,0.02767995454269112,106.17142185580997,319.59004777570226,307.01640842906454,241.09028980585754,176.87106540240438
124.92921985948306,65.7057155886705,-53.474524023664344,-106.8193359194338,90.40184512720043,-2.307838933228595,0.7349577332315675,107.02211443927808,322.48966905960515,311.7441485071158,244.07254349102095,176.7256230137482
126.59606879139756,67.64782904701497,-52.71117368412888,-108.65433327168375,92.156161414302,-3.3004872049154983,1.2621455176267773,108.86685010031215,327.0862954936201,316.8475993272732,248.41639460425267,176.69809506599177
127.86651131556937,68.73306169882926,-52.164193964212245,-110.2009714540709,93.37720670987983,-4.128127104032956,1.5277499680851179,111.74830613495033,333.5178355526441,322.45880197261613,253.71175070532536,177.1862022096375
128.55673063016548,68.6342722012796,-52.06053712454923,-110.85190862548188,94.04233438031133,-4.7498880667913,1.3602566032968753,115.03859606797596,340.47219594746093,328.34168554646476,259.1692685641983,178.27000990282158
128.6810487295552,67.35195564184869,-52.60893826643951,-110.29586027131154,94.33770415540766,-5.124899529398135,0.5758507809405273,117.89695717490576,346.3039990784273,334.0688576561515,264.2921059647424,179.89090526639302
128.56954423177558,65.58057354801895,-53.84917860359565,-108.79627165718011,94.8300283067183,-5.212290928063794,-1.0298341686175263,119.70584127697475,350.4828812250871,338.75284321664367,269.29605463305325,182.19477870536002
129.65442115805854,64.68074243953197,-55.6517132409499,-108.02155280223269,96.18870893506391,-5.037487125872303,-2.6274036788890953,121.06956934389927,354.31342299665084,342.44753462598237,274.2997982412535,185.1903209327802
132.1277679580635,65.05112553023173,-57.79959870183848,-108.49162389466437,97.71014904843832,-4.6312201977871155,-4.196568333114556,122.75165275056861,358.1497081388825,346.526928120913,279.30503588909414,188.68603487643668
134.49000502880153,67.14958939031749,-60.02758655038997,-109.09727595263212,98.90331683346267,-3.28994141297062,-5.947680577923165,125.0215318638966,361.99050076638923,351.4302667303227,284.31033903148455,192.42850140127666
137.0295580949205,70.56835406636492,-62.06291038484778,-110.33338021213058,99.95208715869103,-1.0248022310197484,-8.02999103782713,126.73835219288412,365.8349313209055,355.9123301097552,289.3144131021618,196.23266948818127
140.48725711685802,74.280267047503,-63.667766201751874,-113.54864397876008,101.01248859184943,1.6592522739983906,-10.975784789321551,127.49133100884319,369.7869103052544,359.53815585590837,294.3177550202827,200.3322402072081
144.66724807023638,78.12236243923508,-64.68348613109083,-117.53887981419939,102.28350732777562,4.100684773298781,-14.116915038270236,128.78411553302612,375.21839537364576,362.99787844207276,299.3614722075854,205.29401713349853
149.4801120632419,81.89515273965299,-65.0915379792732,-121.71691887662655,104.09964171864704,6.002430778579765,-16.956205161566686,130.89373158513445,382.31022767508875,366.64695416353607,304.71897509288465,210.6301252745743
154.93595248490237,85.53759513872865,-65.03774889774286,-125.92016260616583,106.89274080374071,8.029996301082974,-20.227118199531105,133.26639245944352,388.9579980461385,369.250781709341,310.16846395152334,215.4742135325996
161.06064105300538,89.16756237508343,-64.6888153633754,-130.02375865019167,111.05764279185951,10.265166396314271,-24.042743811161927,135.32276265196742,393.7907637133958,370.728596200056,315.1179353297175,219.0907043129364
167.04646526604665,92.75185303972103,-64.1281943727754,-134.03766612205982,116.3397778250528,12.319414080841852,-27.97773316686289,136.87798026991186,396.8090165964877,371.46679730666074,318.91062589732064,221.19687984500706
172.2047592059498,96.12078066441791,-63.408083799100496,-138.55999176097157,121.66547727377656,13.697313959101848,-30.864946735146077,138.46448350138417,399.20235433112975,373.4021996501979,321.04180282915695,221.6924687929104
176.10715598432034,99.48534907596877,-62.59829670149338,-143.6903553449938,125.83885564750835,14.42540955228651,-32.72480949352757,139.84801380553836,400.65751904763056,376.63339567111325,321.4539796893041,220.47950588061985
177.95997173673095,103.23987997158656,-61.768646139096745,-147.50473328762564,128.25790554061496,15.931114042954505,-33.58979120487129,140.38555245908174,402.5777242311542,380.3039961216373,321.80043915864553,219.86449054235982
179.23901513405144,106.96219995972024,-60.988945171051455,-150.96089471217783,129.0279066720177,18.093621482497838,-33.93987334958365,139.9751058882739,405.3767360566744,383.85880748138516,322.792757608735,220.52113051931292
180.91617645135193,110.68615722026334,-60.32900685649838,-155.53536946357053,128.48173543639132,20.386471130148493,-35.05939373995534,139.6608558496955,409.25304242357197,388.40909603518594,324.32908693646095,222.14153723929803
182.99885211148649,114.48363361462543,-59.83472060252279,-159.24836818798758,127.40657461427327,22.37913229914375,-35.930086336200475,140.06112545568067,414.4035879792882,394.339023588469,327.59697974798837,224.7617397431295
185.88047660964003,117.82939006951165,-59.31759602778038,-161.35885830439202,126.59243334682924,24.16321397581396,-36.32310817844882,140.9027874687581,420.8235463460733,400.76523097238623,333.34276621946356,228.08492565993674
189.9974226887971,121.32673781968151,-59.56963325673496,-163.67670212904068,126.88105703584733,26.276970925528985,-37.68075457048326,142.706193721413,427.47381084575136,407.6372083963488,340.87754627674803,232.70888816137267
195.45637782282756,125.10187765797491,-60.92252380841819,-166.70396421626901,128.98309767201863,28.250167993695413,-40.06640944998071,145.4842534225536,434.0129259694713,415.3383989717413,349.17585320209946,238.62018320869083
201.15193518925116,128.73478858585622,-62.89349034959923,-170.52551852628858,132.54441671733184,29.419214536787877,-43.188282674227594,148.80075011776898,440.0407746271212,423.4346200314576,357.2062307606211,244.87719206451766
206.08309875887062,131.9481375817304,-64.73562783718262,-175.18186926606813,136.7444722241953,29.365333525400274,-46.629933949654514,152.05591564520546,445.25540711769827,431.3238244932727,364.22248700980526,250.3119222793175
210.21407538238054,135.08756333038582,-66.31910318296286,-180.59362980937476,140.9935764043721,28.29419367769333,-50.095221675235734,154.66731716302274,449.72355232157133,438.50705636673956,370.1970465097884,254.36080703329026
213.60717586587998,137.59610810749837,-67.88854799402907,-185.16196484803822,144.96641773414012,27.08247301438996,-52.87788778887989,156.2507409934151,454.64284484542804,443.7607211381319,376.13890103852646,259.91255643661043
216.46289032984168,139.7336799407185,-69.61493572827385,-188.6873224916253,148.50685766311472,25.843635827091475,-55.00112055570207,156.98525296060143,459.6480459525883,447.25978358737666,381.5881501726062,266.4085284512189
220.04961502470178,142.09251785560082,-71.66046917794665,-191.54234919689952,152.0075935739451,24.633129749337513,-57.819702657536254,157.2578843054398,464.6532433300763,450.13521421518635,386.50678125468403,271.687702034772
224.44214198605914,144.29668050480723,-74.18175003348188,-193.5720394497257,155.99119437375975,23.89918537991798,-60.266944013070315,156.84500479114467,469.6510681204545,452.11132787027054,391.56596566274857,275.94926011607095
229.64004373450734,146.33419911634155,-77.19288374160715,-195.51120374454513,160.04946588027633,24.474620428400613,-61.7831656591552,156.45062996952583,474.15876258524077,453.55514537766066,395.61068565755704,279.58318762424005
235.6440844792487,148.95403237118626,-81.29718336940641,-199.07973598755052,163.56080663328066,25.747535081985006,-63.37302147523587,157.10949547691234,479.18409016642727,455.958702780129,399.3987732763035,283.83202243028245
242.34967994357066,151.9098234394205,-86.00458599957892,-203.99568276141508,166.44282407489482,27.34116013867697,-65.32388419456765,158.77072730864347,485.3893943738385,459.35847990034927,403.5696255605544,289.0866970144666
249.31610290248864,156.53732226547618,-90.2202740670491,-210.04408558665727,168.90415598730578,29.621896275779363,-67.98208079114193,161.05952325492035,491.41502212495834,463.6656412929606,408.24258676126374,293.55033001590346
256.08484122328446,162.92601719283812,-93.11352159654052,-217.01867828182912,170.86518125502698,32.497121195327054,-71.67282027120746,163.48679524340514,497.11247429804826,468.719076393465,413.38285070048823,296.78614559209564
261.9646619163359,170.00479528190954,-94.63350359045398,-224.19290085577813,172.60452192127013,35.741439294610245,-75.86802689670003,165.5188364941332,502.4815701061816,474.21258701749684,418.6495325643682,299.1755324739488
266.42438036394924,175.81739203204233,-94.93195405109145,-230.33929226988403,174.4802631673192,39.0985003527112,-79.27444558440948,166.69390194408516,507.5228014915301,479.342691734033,423.596230527186,302.38401353065456
269.8474647242365,180.40316146757868,-94.13569236666626,-234.81186916210572,176.84301835163023,42.40671389392628,-81.60802839584721,166.74428859174623,512.2360305056263,484.346536672645,427.85361809923324,306.16465127648644
273.3513942343343,184.09297544718538,-92.55442093262354,-238.32359244769577,179.45415930463423,45.35712103851165,-84.35685872840077,165.64573497933998,516.4041316118528,489.16346552067716,432.6462607825815,309.5706334974939
276.69043558231715,187.0845618532985,-90.5765585995432,-241.74697669481247,182.15273526546298,47.95198008746593,-86.80640919800499,164.2717429386721,520.0258176916905,493.7089148662526,437.5560340835282,313.25535922323706
280.0310248284659,189.57464556722334,-88.47841855933257,-244.2664455072918,185.0755683281568,50.02631765432443,-88.04608716661824,163.9992382806322,524.5408902385407,498.94678927643145,441.3338430816466,317.4440848910608
283.5315221891178,191.7595380477851,-86.52397049021238,-246.52653497639312,187.30379501948119,51.16139398796122,-89.00802369191115,164.87148090771552,530.4788087845318,505.13995724712004,446.01898259086374,322.30089266688174
286.92890547814386,194.0839287238614,-84.9355213907238,-249.49650315976214,188.24657124583882,52.14156960286164,-90.28602851514734,166.70084038363711,536.8798339309287,512.1153333927359,452.3134148364761,327.34524561264425
291.51182305690963,198.12836604158838,-84.38729313126714,-253.375650853377,190.0488989472624,53.609767194615415,-92.50276950556508,169.06931795023047,542.6183168517982,518.9753925370478,459.94464529070046,332.40702371135103
297.40404535901143,203.6145211082021,-85.0939610287569,-258.2015274035466,193.11124360167196,55.3295017533037,-96.0205089649753,171.45214770033817,548.0888657511332,525.1969072391075,468.3016489936799,338.44043762996444
303.95761981240867,209.3049866923975,-86.97973528457624,-263.6209508354441,197.1425730275887,57.03490188410069,-100.1674666897743,173.33591371142575,553.0226741024035,530.4826057419286,476.26202216517777,344.9921983809527
310.65094230080285,214.09056264620267,-89.81275436945907,-269.28696396757095,201.65364140729707,58.46260736214799,-104.2118095119331,174.32509134342945,557.0488145468335,534.6475037834462,482.7897165546892,351.16052264489736
317.39254648208953,218.10174530118275,-93.25207659016269,-275.10471948597296,206.3364995274951,59.39659237507749,-108.25581293319738,174.1490697942263,560.1395193710377,537.481932780458,487.70664322085577,356.36617238097824
324.0607133036192,221.6869458796191,-96.88705695688623,-281.31784574089215,210.67039996613858,59.533560675684384,-112.11378530814909,173.5881363607059,562.4918010359888,539.4471467875519,492.1691926961448,361.6221560925951
330.4562286621767,225.0423155475928,-100.29414164482841,-287.2655709242126,214.88558934640423,59.00992786162624,-115.20310530805,173.55549457399138,564.8506344197685,541.3135403633987,495.9702621965598,367.11153407974143
336.3813581532613,228.36531327534067,-103.10723362049066,-292.22155259212377,219.60341598254945,58.22492156403405,-117.23564514427198,174.67601234803806,568.1894363447154,543.3417015138966,498.9082666127006,372.63420055440747
341.6391540458062,231.8505198791754,-105.09278036306023,-297.2860319916017,224.04376949969355,58.304707785411665,-119.03938387373273,176.52081538952007,571.7330158622099,545.8395956114582,502.08690139225837,377.99789972368535
346.12857958301174,235.1811787825627,-106.25074823169598,-301.29665590046534,227.73195140482585,60.366629835712956,-121.01363155084073,178.5865237445396,576.5947029138079,548.8479158577775,506.0175272370725,383.5727551711957
351.00376391691316,239.66091693542148,-107.02487704695704,-305.32630209939725,231.88323741396562,63.623449046894166,-123.58236275128911,180.3177541605928,582.3894769464296,551.8595029727785,510.62656558684193,389.5336864886235
356.00687767178533,245.87882612643443,-107.39955977257887,-309.98940475965264,235.65751879279378,67.19264604846558,-127.3044043340451,181.36067061226822,588.3025987374622,554.6276171692843,515.7281179690235,395.4106537785583
361.16369155397115,252.3975279163351,-107.39219195967053,-314.5462955240728,238.20674138249706,71.22471703758129,-132.00176104987258,182.24623240600886,594.1650405790697,558.5244763312212,521.0275487491235,400.47856351783776
366.6866781930985,258.4113008942222,-107.07185758658488,-318.78704492288125,239.37278557485024,75.31488196385408,-137.02947271759695,183.01766870974643,599.5945537113566,563.7496791121475,526.357398874743,404.24662185982197
371.9258147621258,263.7775654523266,-106.5169693955213,-322.54364167765743,239.6068314867407,78.99623307142701,-141.60111710745696,183.84915874971193,604.4747725066136,569.5999440984588,531.4965107027238,407.0409354965932
375.9781404114183,268.5499140886768,-105.8007927073304,-325.73820356459873,239.56135602652375,82.0082650401846,-144.41186107868634,185.53477292526622,608.758912237683,575.4777078585794,536.0660368818753,410.2593950975952
378.841551421252,272.7459091221426,-104.9930921119867,-328.6391613122305,239.85407235184812,84.43151264538665,-145.56709843467252,188.10953165491446,612.4309417337026,580.6418595613904,539.4936325828658,414.31915684885826
380.9130761543711,275.51071538986434,-104.16363219946106,-331.6438572127554,240.22370511751524,86.26825336866614,-146.16340900834984,191.18936271916937,614.6366074407997,584.618020955033,543.4011519722026,418.34951443905265
382.5876268882712,277.04154063812166,-103.38217755972255,-334.44158497559874,241.19439181954385,87.56275380623492,-146.74678262695306,194.31936741307254,616.3465649571863,588.1126241812944,548.0123864772231,422.1278512951626
384.25943513228776,277.74445273089805,-102.71849278274749,-336.8903639511336,242.87075743053083,88.46712449242887,-147.5225257412676,197.0514531778881,618.7495836514263,590.8058669840821,552.2887373441854,425.7962111119755
386.3229141592601,279.3662848685708,-102.22333354010516,-340.5357730265423,245.13505096934023,88.17731683257261,-148.6004409314337,199.09561883526658,620.8460733252505,592.1259714167672,556.5056336706457,429.07290000950525
389.1741409095921,282.53385541502394,-101.70099329979894,-344.5262280284305,247.8128898151008,86.71492053868951,-150.06998527426913,200.56652042753376,622.9445902662392,591.7453807714428,561.0507372493812,432.83420240105306
393.25581686311125,285.74796257252274,-101.86470901535176,-348.3841537549324,250.94060464658196,84.99778619194922,-151.51236640472416,202.07948577440948,625.8149930240925,592.8886929017262,565.8172535814483,437.59945223497925
398.7286065120643,288.8376295427279,-102.92328456941868,-352.245998331764,254.99249269650772,83.09601859353188,-152.5075246948727,203.43890637630648,629.6699874596943,595.773562088667,570.3692536431427,443.3335895804703
404.42293404684824,291.9239689079204,-104.7914306432449,-355.8065864019518,259.6883503780782,81.17679153474,-153.14150091118063,204.61364281469105,634.3842891117383,599.4923135665413,573.8503888199111,449.4130116420156
409.2221835135242,295.12824227850615,-107.28840859075353,-358.8262327045495,264.2648491716682,79.43376684152372,-153.8731157785769,205.60369508955955,639.4969792427091,603.2067734456614,575.5794323252285,455.04685342513767
413.2387818590614,298.45909652239243,-110.16119752336635,-361.3217090677026,267.8951443852784,78.06060633982997,-155.20678823920025,206.4090632009138,644.26132906784,606.7392715529922,575.5206388171573,460.01187665678026
416.82735601153763,300.4467977994573,-113.10928760902607,-363.9719887268311,270.36403008639627,77.26464262133868,-157.8112463858488,207.02974714875563,647.4223260197086,610.3109229979855,576.1192370245008,463.4382537397332
420.1841613938268,301.657091812629,-115.81109958548768,-367.3152263610791,272.39765002239074,77.34567544654055,-161.3479140816744,207.4657469330814,649.0619027801931,613.4043493892013,577.307410001431,465.5032243763517
423.5200457631763,302.76288099646445,-117.95203048776602,-370.7463048787904,274.2203263916099,78.49176230751664,-165.17306755962272,207.71706255389472,649.1565555159486,615.0813313691833,577.753323506442,466.92331048413143
427.0610486406331,304.3588273193036,-119.25412558985045,-373.7259116324003,275.9554247840606,80.74323753227145,-168.58502854269136,207.7836940111938,648.3739658203976,614.7318983990772,578.5474505979637,469.0208923830892
430.98349388929273,306.9952738160446,-119.55542688211608,-376.39547060260793,277.72571502812207,84.04254718379616,-170.95595136591146,207.66564130498045,647.7849608818342,612.5753128137803,580.7430978345637,472.0605354444542
435.421037566226,310.08073449837866,-119.55211767616129,-379.35589453716784,279.7120237762874,88.22491124700991,-171.9126257083699,207.36290443525104,647.8581872034865,611.2987061594204,583.5475034890824,475.37018676325624
440.3622207204917,313.6599178616452,-119.31926195597407,-382.4909823856133,282.02989518921186,93.0148533909105,-171.57406099467698,206.8754834020092,648.9452046225033,611.2921621068381,586.193859343548,478.4162169845272
445.28394100830155,317.8638138110673,-118.19596320748133,-385.5656821752964,283.27240877783424,98.07861967035751,-170.61197828671357,206.20337820525128,650.8624619789498,612.4996514572649,588.935805428704,481.21682750359923
449.70604507495227,322.6341358688933,-116.1959389386775,-388.41673748727226,282.7208783475053,103.08070117126681,-169.75228441365834,205.34658884498094,653.1259941723984,614.8175899036687,591.5583128797725,483.46888968134135
453.5636115395864,327.66806001819896,-113.51707406591049,-391.0375697761374,280.4865390265022,107.7444605992323,-169.37487726497784,204.30511532119453,655.0525629939675,617.9306635047951,594.052745210327,485.31474773675336
456.8920787993775,331.9778704483524,-110.43356296001184,-393.87812766454044,277.614065967251,111.91686281155944,-169.67259761616515,203.0789576338957,655.9500788720925,621.3220775904774,597.048766074894,486.93861829617344
459.6480375027986,335.66318196660905,-107.26717987317716,-396.76353921176997,274.52608637350386,115.60275263490576,-170.6781415987898,201.66811578308443,655.3223016606553,624.1530339946075,600.3012449032967,488.36002129921326
461.8356865264941,338.8033870267591,-104.35854936585565,-398.84776522018365,271.58311677531674,118.77073433818396,-172.28902419188125,200.16928949735848,653.7007344510839,625.6541859949102,603.0022914668853,489.70769497977744
463.48490184720504,341.3686738210017,-102.03841673361603,-400.5894053690499,269.1966510246293,121.40823759388695,-174.35461157157624,198.60002698938115,651.8998255901661,625.3658596892765,605.5429914777706,490.89875599776315
464.59679552964553,343.3789916830701,-100.42903549850234,-402.2740136361099,267.54251328510236,123.55478078403985,-176.68804773556622,196.3615053273079,649.6396642786913,623.242824930574,608.1058093854926,491.16443094846454
465.1711502347898,344.85381583215167,-100.06451951788222,-403.6418814767276,267.16800876327943,125.24845293403087,-179.0879462002158,193.51164499460538,647.2258561943509,619.9099900862911,609.682387713865,490.70667028619846
465.2077486236267,345.7932163509704,-101.29719631020453,-404.6410691399178,268.3572809083571,126.50685669712311,-181.36984677037617,190.33309420662226,645.2665959398619,615.6001590875039,609.9579061061813,490.4905034785779
464.70637335713036,346.1972633222522,-103.36443000957115,-405.21963687469724,270.37031738035785,127.34759472657879,-183.40743738184938,187.21514467261113,643.2889543403744,610.5494788993738,609.3659749624803,491.40022127332213
463.6668070962878,346.0660268287302,-106.11685736969412,-405.3256449300816,273.1539137554619,127.78826967566056,-185.18524057036302,184.55807680972248,640.982088644234,605.0129685360807,607.6203990299127,493.1492050895786
462.08883250207145,345.39957695313024,-109.19720506778503,-404.90715355508655,276.4455131656341,127.84648419762925,-186.7504285223149,182.69275283515708,638.3355031888495,599.5854920757829,604.7447133959377,495.1993794387663
459.9812993159612,344.1979837781819,-112.1786332004358,-403.9116851322051,279.85171188542245,127.5398409457498,-188.07523133526047,181.81933924884288,635.5104888050319,594.8724213507812,600.9057946507528,496.92664059213485
457.7727889953203,342.4613173866146,-114.82086214996343,-402.2427402218791,282.72446759703234,126.8859425732835,-188.96559803198397,182.0686046432802,632.6065169957037,590.8490274632568,596.3443661245128,497.6837267444571
454.62032552435267,340.1864722130431,-116.17081466068157,-399.82857535487983,284.3962820639781,125.90239173349164,-189.23906156808698,182.6337392766709,629.9509674486308,587.2603713607468,591.4504755057078,497.56216260492874
450.110738272695,337.34356772856154,-115.69566709274841,-396.67483071206334,284.4204577392411,124.60679107963824,-188.67192238245116,182.64564116268048,627.1377685081407,583.9075462674209,586.7846245436458,496.7454652329684
445.00059634778154,333.92910517587006,-114.15355478632046,-392.8491996682551,282.58915973969124,123.01674326498551,-187.11488726668722,181.57525103791886,623.737257730998,580.5889778684405,581.3815544432437,494.49667714618136
439.11512108455645,329.9944381144196,-112.05512039815221,-388.47211991060794,279.3901891765436,121.14985094279518,-184.5558048468538,180.00253441547648,620.3253263113456,577.1055131992189,575.4192619245487,491.780859906984
432.019222041763,325.625150205522,-109.1482625289591,-383.69724840264735,275.22774247551297,119.02371676633038,-181.085112917488,178.50680892541277,616.4433419119268,573.7319481807936,569.0295470402889,490.1467957243249
424.2157197579727,321.0028507457264,-106.05275300083667,-378.7521411261041,270.30913099206737,116.68115349374693,-176.86642052449315,176.66511117430673,611.0812865379103,569.4413584305585,562.3029666361599,488.45260223328387
416.19306013629466,316.6160920672064,-103.43000439783827,-374.1548611500657,265.03899392971744,114.25877083225896,-172.11111934842847,174.34617957075352,603.7973892222199,563.7572589691936,555.0655198115201,485.83908026806694
408.41301180814844,311.34494210432786,-100.72246789069868,-368.9400500966158,259.6252049700897,111.38318839529893,-166.9074073759075,172.29278013106705,595.6982900478542,557.2887284503977,548.3629026127073,482.0420587456174
401.29797701032476,305.16543588277636,-98.00869378637981,-362.7796195978517,254.01843121328784,108.05828252669926,-161.22797324338535,170.7552425262602,587.3844528710488,550.6054743599179,542.7861161800265,477.0485183624987
395.19345938229526,298.646261453423,-95.45051939103178,-356.2266415495342,248.75989515283072,104.4026387077306,-155.85137003262207,169.53596780637963,579.1308375574135,543.8788041213138,538.5692647302203,471.31606376572927
389.27345090730523,292.45154579686096,-92.63359240732643,-350.1701022376865,244.66715987544558,100.56064561148924,-151.73437530020237,167.71525824624587,571.1602632626582,537.2300261759101,535.7696892680087,465.94480862708133
383.66759225809983,286.7638709185794,-89.91696952539132,-345.0252461770924,241.7699872806852,96.59911379186906,-148.83859122147442,165.06270328317078,563.6160826871655,531.2614469594137,534.3644864336275,461.6823962446724
378.93403028773173,281.57283816005656,-88.19347789335188,-339.7195942146409,239.6743500464354,93.20691486479654,-146.7420673009383,162.3756807197551,556.6285887323593,525.2290043611401,531.1992863481564,456.5690929780867
374.2979646506301,276.8846003027429,-87.06942174146752,-334.2075689845242,237.98950103931747,90.64125018172626,-145.0575655372595,160.6232824985509,549.7285016547867,519.0215139348556,526.0073693042768,451.1986760858972
369.67032560710504,272.7017242646234,-86.21592908440834,-328.6908073250888,236.3232469188979,88.20899081947027,-143.04402962102176,160.0189303810057,541.8832763508926,513.4598270384986,520.0510972675847,447.80476309184405
364.9060239694736,269.0237087363348,-86.37477050091366,-323.36594321956,234.2544274085667,85.8696410799239,-140.7035467114365,159.32400175363182,533.1788233972438,507.55850898421977,512.4441304376396,444.35112847858363
359.35969232568095,265.65101855908324,-87.39063198285294,-318.2552196211873,230.9081325344432,83.70515125022303,-138.44335571431657,158.18757251058742,524.6676208232184,501.28058098050315,502.4935933197248,440.03951888638267
353.21593007864976,261.19247127379094,-88.24415781043172,-312.2269380236321,226.93290343442004,81.50248394648952,-135.48384969438303,156.84680436265262,515.7132037901501,493.6322016429076,491.3405900152884,434.5577603697998
346.6362456723509,255.8522719462344,-88.86889564222474,-305.4353903576066,222.47224881381499,79.57581211348315,-131.61538972844573,154.80972155272684,505.8325856142401,484.1514058081766,479.6083785538967,427.4959193600007
339.9325690681544,250.40867648080348,-89.18622366082309,-299.0635684390845,218.2167989646141,78.14355685596365,-127.70861039521697,151.8254231397077,495.82405025967637,473.6799806619092,468.1155579667129,419.63657385478746
333.4603663001981,245.66679388653392,-89.15400708316338,-294.21419269916805,214.64213132423356,77.33416592471076,-124.42277166867643,147.9287179329276,486.67406728947935,463.5796235968037,457.6557323934103,412.23568316632463
327.5150205245445,242.13601383801506,-88.5897233759697,-291.636021573353,211.3694919977661,77.32755934191528,-121.35105143361216,143.22558133726307,478.4701708336488,454.51993167410546,448.4010445648237,405.59622344203945
321.8264143945653,238.59722689290538,-87.27144343918371,-288.36660881439275,208.12596284620486,77.81318554510472,-118.7778878927711,138.6273071751075,470.7703883663744,445.53192861971183,438.80191705164,398.133876499729
316.12768930684615,234.55242910647576,-85.1055102711598,-283.60797990347965,205.03630901881843,77.89649728083396,-117.1703691264629,135.3264591557363,463.179337890173,436.8918090457955,429.4763624887073,390.4794172219936
310.3347734015988,230.00134190967947,-82.1036024015757,-278.19821335151755,200.84627526870554,76.80815798348067,-114.30718701801379,133.70905012719413,455.29940501002784,429.20699476552,421.2032554128091,383.819092021894
303.52870587503276,224.94396633707765,-78.35527985616136,-271.94052842756355,195.2850470019057,75.00957795690283,-110.7968747195664,132.96226012262377,447.61328806395795,422.0674880887509,412.673972103692,376.86180665282245
295.79843884327056,219.38154463857063,-73.99795679452473,-264.1832860342274,188.88145467454342,73.03101188267237,-107.88212265704715,132.48825406977448,440.38309758392825,414.4623787230621,404.2202817709185,368.79183848042567
286.538279498016,213.38757264719243,-69.15903322270424,-255.46897570681358,182.2801930640153,71.41688700969553,-104.47708423644872,131.69197048920432,431.67581846840767,405.71236602318277,395.7050781985781,359.78900077619164
275.37098655459704,207.44652359529027,-63.82941071159803,-246.5514759464986,174.89989210954718,70.41594571496307,-100.29064691000167,130.03629552488746,422.0808838693465,396.8257637451097,387.0832074635746,350.4073177707405
263.30512801511213,200.96075974013547,-58.32384400655428,-237.28692184885222,166.736651503963,69.6151338839095,-96.21834805006074,127.2392603105418,411.2877160232183,387.1035063460813,378.3506225312485,340.6186747847951
251.520102172899,194.37608670798727,-53.09738903702237,-228.54118997387468,158.3105045622724,68.87840571836068,-92.63115972826745,123.04852639735509,399.7010145657696,377.0438067756704,369.2626496241501,331.2556279024566
241.03343552950173,188.3552459672337,-48.485466031901524,-221.35514999364568,150.5519772736534,67.98587347587136,-89.39473273876138,117.8063119345079,388.0813288175814,367.2550665392537,360.3594535190714,322.7855272063862
232.2509850321294,182.35311312544763,-44.80449862142086,-214.45154789333264,144.49662161305878,66.12044999887667,-86.7235703624192,112.63918998865302,377.3185561145747,358.30805471237545,352.54036904216264,315.4972678720055
225.2931113457089,176.65850249505638,-42.365220618965395,-208.09810025788647,140.66137805067228,63.09562171064317,-84.25956121920717,108.85388146779042,367.66510359082713,350.211616239465,346.0700959371825,309.5585141055708
220.09093871542063,171.4701693631123,-41.327841765119956,-203.17700796823465,137.43934234850167,59.87379518747912,-80.3817351623693,106.9933463261641,358.92748381649653,342.57472112025425,340.510085070513,304.9514731938998
216.43080379303137,166.78598122380208,-41.64547754631167,-198.92609580272438,134.92708548141763,57.08028091878623,-76.45823387802375,106.28412965680582,350.90478597542824,334.9989159681645,335.5232554085678,301.21638601923814
214.3154166884342,162.60122575436617,-43.12501628944301,-194.76799778631175,134.44735897762803,54.312535027896956,-73.50224242017066,106.10024761074055,343.39382887075226,327.17268317047365,330.40257191168166,296.8174279238283
211.63981622904248,158.91412308763756,-44.79840377263281,-191.14353150712031,133.902658550257,51.851963603626245,-71.14385634415157,105.84870579033668,336.16556728799696,319.42294299834066,323.7242788545391,292.2675922936005
207.10120478132376,155.5381756300103,-45.4219576974192,-187.74387436799043,131.48594356085687,49.827286186842684,-69.56887608241959,104.93889477117591,328.46750065996275,311.5899432786464,315.1801581067075,287.9671521700502
201.12083489718134,151.0920907439995,-44.793566831433054,-183.3275410989645,127.75383297513963,48.05658389756263,-68.92804822616017,102.7276550647548,319.13905599706595,302.2357783691814,304.8885246936961,281.9531064568728
194.06707099833875,145.75403203983842,-43.27194242384758,-178.22945764219185,123.32594598709966,46.614960471141785,-68.57878025054742,98.60403244493318,308.93348727925513,292.30412465567315,293.299590188406,274.16415380914077
186.99301150501014,140.30222089323615,-41.463346941483906,-172.963462510078,119.01260762670063,45.318794968974544,-67.84691533566547,93.25442242288591,299.37972513550085,282.9710155545381,282.0212923639092,265.71856037053567
181.03992582739738,135.53865372493055,-39.98786728296545,-167.8719359603765,115.46081067737941,43.92755134248273,-66.29116629130658,87.93487056902632,291.7340372699855,274.9747512927679,272.4467774516197,258.0544211049196
176.25235028922543,131.50304814276933,-39.008925698737585,-162.87236939536433,113.09399766514343,42.35776242101929,-63.985129701848564,83.88999626186524,286.4024993303774,267.70259200010787,264.96810253838703,252.0396884132324
172.07389113985846,127.90685236243917,-38.35255979408248,-157.9775579852485,110.1889849613608,41.06485154303755,-60.78405188639954,81.76245275107976,282.15915102141116,261.9325740532986,259.45703192085966,246.97912758326993
168.07865891051915,124.54392740645744,-37.81676477744986,-153.49849906345753,106.62705269134403,39.776517869873715,-56.74629295903469,80.89945711825749,278.06783896787056,258.09970833105945,255.45537027973296,241.99055105731213
163.4998034225464,120.94808618586103,-37.067308364246855,-148.03820200982955,103.2756261806735,37.843041701482434,-53.166325253601826,80.66040708722721,274.27349081862667,254.59851962021185,250.77037004053363,236.8619822542296
157.77852650305795,117.09221818304468,-35.25151621109217,-141.73541231471427,98.710425982591,35.84514057824617,-50.32086036919645,80.45878547171014,270.0527575370452,250.57382558091194,245.0867713376574,231.8704151360539
150.568183578529,113.70215105802345,-31.76129971051887,-135.82469428453078,92.12055268099266,34.27624911156363,-47.42159608828115,79.29675917644454,264.01547558039965,246.44622716454614,238.71393370199712,225.8890080421952
142.35902678377897,110.3797141365394,-26.920920193942948,-130.04192603388765,85.30976386652765,33.462410901085605,-44.44433172789468,77.15946094911851,256.85063251363135,241.58347973878517,231.99269281344368,218.80791378676258
133.28984485035107,106.83011147030447,-21.436606594905243,-124.28684665000583,79.37108457292743,33.365954057180716,-41.90344981682574,74.30522324510093,249.36934723891682,235.6317016061812,224.7137242509034,211.42431644460976
125.22777337119078,103.15252109905305,-16.16811694075841,-119.27396541518829,74.1409500577638,33.79052142503042,-39.33936901453853,70.48374304757999,241.15642889832088,228.78843533715917,218.21843038965108,204.43073509735314
119.26305784737451,99.29843645101028,-11.826685770834956,-115.28794976416248,69.83585331761424,34.50360525929227,-36.71948528652683,66.1795363116853,232.80346753276353,221.25122350214224,212.73131326322255,198.63896902264605
115.27140111778135,95.53856231861027,-8.646967310436594,-112.41792541025825,66.77248324736684,35.32424169029946,-34.1143987136893,62.34994723492309,225.17249801252365,213.23333462455867,208.25234992088826,194.1798489062562
112.67418804488989,92.33146109347945,-6.701242601402555,-110.64453196507202,64.08913911249965,36.14276930856431,-31.223401188864955,59.75785650031139,218.0342644507109,206.19327656026599,204.77841421418816,190.16636704441953
111.00779609285382,89.92117529090137,-6.081011055304771,-109.69856827724288,62.0895354846225,37.060850641508296,-28.347135171661648,58.347522043271965,211.66966920621962,200.24564906427895,202.04587642800743,186.45847148734447
108.98066136901252,87.37315342236798,-6.695906844974161,-107.54026456566498,61.09415035110942,37.27438442586754,-26.51601806753024,57.06156842571545,206.69315541596188,194.30427595254605,198.9152087115117,184.3072323129295
106.56031608407466,84.75641665769581,-8.23613150413803,-104.6510469267887,60.984696574360896,36.53543889867069,-25.426045900418103,55.37035090244717,202.4481768438054,188.91591409443936,195.7433790472187,183.08396788119126
104.32242984007826,82.90934833380379,-10.270330539684437,-102.53181825536376,61.22850638595264,34.90154867950832,-24.746940068525873,53.64711123541201,198.6399007816708,184.7064279467122,191.27820301652355,180.49086195407108
102.05417855037376,81.63925239662058,-11.907360122266255,-100.03960490391728,61.88036796089909,32.54779088264149,-25.224278365702048,52.192816833236066,195.24955329555814,180.1665481283908,185.48068782685732,177.2783116913006
99.58358589820455,81.00415629605959,-12.19531720076884,-97.01287776901154,62.509399737717104,29.73981114866092,-26.729617004120882,50.53816156949506,190.8354172952313,174.1463984666234,178.51955222919332,173.2460827639361
96.27732430434844,79.82390080658661,-11.625955403738772,-93.79529851535426,61.82314020519607,26.803527185541952,-28.229852030777693,47.85643749827614,185.27130047168066,167.95105484925807,171.74986279358473,168.71427184247523
91.73986107996461,77.63333723452888,-10.511154365885886,-89.97337502792925,59.61796225481703,24.091509819080784,-29.41103017193018,44.57859576782175,179.39277473000584,162.165057276683,165.00837584464716,164.16669779672884
86.89782353842747,75.49582012698193,-8.303324598160543,-86.36590223251369,55.98337276644361,21.946041552713268,-29.58012474811403,41.553028101086966,173.493967511351,156.3673929364213,158.24697020709027,159.37076811053703
82.10816170279759,73.94703188237327,-5.196013810922523,-83.18427501223323,51.181840389265744,20.658852636728625,-28.58176085688865,39.47758792444256,168.0548375487524,150.72011738747824,151.52199844565257,154.5282974050715
77.56741614041675,72.7147014254424,-1.8955637535909773,-80.33378911320324,45.81931283154245,20.37306488152808,-26.485418365391524,38.49191345323197,163.25695746094243,145.93153751966383,145.5858903585131,150.00231318493206
73.04057898943574,70.79961662473397,0.7698949378263933,-77.21455297955526,40.60526541991021,20.377278863466017,-23.522917289225006,37.986369496020416,159.27618423645254,142.7248354738913,141.42757022642854,146.73640515610532
69.0280874204982,68.2152222315126,2.407914929173785,-74.08270165485192,36.02533897079775,20.622284675295305,-20.054391941223003,38.17293594981311,156.28523069314178,140.9720171058616,139.0857328371585,144.3016569657234
65.95276935671791,65.5975441310311,3.7292958492125763,-72.27794731972335,32.22332917613767,21.779428110106437,-16.487974231495173,38.60573220248443,154.3735390323127,140.27932361191688,136.66325466768376,141.93000650770045
63.46089528788616,63.57015610565759,5.441360559156237,-71.12567147563823,29.134180159665448,23.864521877198058,-13.213549698124552,38.37924530786404,152.09561498490257,139.34170205226837,134.63551412785637,139.65287396052463
61.20446274364076,62.323148143555954,7.7862129494005785,-69.67367565068344,26.80919330606139,26.651469009841094,-10.537788519128299,37.67205664926769,147.51538920270468,137.17062047623222,133.43075526052235,136.82764737083926
57.969709908367804,61.25255525524517,9.88997601970732,-67.56093369785594,25.23501017588751,29.806391013209577,-8.611605570062238,36.15651523826091,142.25739329768294,134.70589880630178,132.45713918749425,134.3681169486772
54.345853401669956,60.75973553593394,11.881585869718037,-64.76433841730613,24.314346250308517,33.00656450657243,-7.281630680074159,33.655953104187574,136.84419357218758,131.16589060397746,131.12243867391862,132.38085697490942
51.47550468639383,60.48286644882501,13.52616523809047,-62.23593840109697,23.856995179981823,35.18866288042591,-6.113857904376346,30.50087110437198,131.58623285824615,126.62317595072818,128.71589837767078,130.63306119526533
49.5142278684707,59.888083791167446,14.30760713518066,-59.98145161343746,23.699892442760756,35.94484797259702,-5.185747665273084,27.155393844504943,126.95199383812542,121.85891643455398,124.79442696888145,129.17795584250007
48.70782193390369,58.73087479902097,13.775820456468864,-58.05617315477775,23.869478078533575,35.183304651948674,-4.46939346032741,24.10216775752997,123.21281596970402,117.7470193153913,120.53200566947544,127.89443920617123
49.16233063704385,56.94642098386794,11.77348864106716,-56.56227414303248,24.362094179843552,33.011114640270534,-3.942916455816885,21.715028487045856,120.5020616230031,114.74638005140696,117.30126297420611,126.66058454935774
50.70136480467772,54.70497160850755,8.805425482414648,-55.7731797066881,25.06323599762345,29.839208158739893,-3.604075786723115,20.03729137011942,118.71699664030712,112.62031582278269,115.00868592019651,125.56669446451178
52.64243071560486,52.42943347471555,5.965755854544113,-56.23354938948614,25.871298384839974,26.734696137721585,-3.4419432692830014,18.59177969047414,118.08960673515503,110.64603006957077,112.65069598919581,124.42923167707931
54.741706781971516,50.61263511868128,3.5339583371260233,-57.44807482718352,26.699984826018408,24.018049193727165,-3.442091228755089,17.983514560843105,117.82574353380733,108.40459435811681,110.55835893105541,122.4473838057329
56.74026041405159,49.69189022022147,1.7822675827210332,-58.67352205967654,27.462998805685856,22.00828266862254,-3.590091990394285,18.709282281573905,116.07270959561902,105.71928027298418,108.70630379732484,119.86152569318529
58.36369450940765,49.9254593936148,0.8643015359466517,-59.88916973031337,28.082391196751814,20.90565246737515,-3.871517879455496,19.97458240909873,113.45022923781835,102.51368325231851,106.20953403357544,116.94073112142769
59.231042948678805,51.18341960048201,0.6786213813775248,-61.05412941804934,28.74596883245249,20.658385911767255,-4.27194122119181,21.518228284405268,110.81096774284197,98.87318906713335,103.25715082763418,113.4488394442551
59.0178835334882,52.51425724965702,0.5059174475918553,-61.405263814325735,28.769917743374208,20.611047846094152,-4.7769343408544955,23.317589983442303,108.91841360939543,95.94254010630175,100.24296997027704,110.2679729121096
57.58512923121634,53.73005643558463,0.5577704149109195,-60.58101017393528,27.856647410892037,20.84993803733323,-5.372069563702098,25.242957815722548,107.69401753942657,94.01633534101074,97.28267797202443,107.71743513446154
54.91982507648754,53.93963727026676,0.8675897275788884,-58.734481133407826,26.087161903379638,21.372264476804503,-6.042919214989524,27.164622090765988,106.2110696836371,93.29829912157402,94.46177258327225,105.16177086547304
51.10630810416842,52.95248039820399,1.4229259616095078,-56.25473064543439,23.666468187093415,22.131481944823918,-6.775055619971681,28.952873118081698,104.21849248245599,93.86879708637025,92.23346912206489,102.52115106239216
46.45925450480718,51.03361998762375,2.3271434934249555,-53.645768249993125,20.88599191225967,23.081045221707882,-7.5540511038998375,30.478001207191483,101.89501490489602,95.57072697935291,90.40858576843766,99.87970116449287
41.44116874622341,48.68165154090275,3.6960978369243094,-51.41584214145951,18.08600292486426,24.1744090877728,-8.365477992034357,31.610296667606235,99.9769193759148,97.65136275250643,88.80214676926153,97.00222817962458
36.567860950939576,46.45813807632476,5.4904924653274065,-49.976991031731814,15.618050504139319,25.365028323335537,-9.194908609622871,32.22004980884776,98.48312921258002,99.70572482142052,87.3884735798656,94.40666764078469
32.311231907022375,44.90052096692307,7.586822293300429,-49.634514783563645,13.807408325755205,26.606357708712494,-10.027915281923924,32.151171465580774,96.89343446219209,101.35880455806546,86.03119847682319,93.03853622067982
28.999365712446888,43.99064163556068,9.832208707659447,-50.13970783956211,12.915529150718612,27.851852024219625,-10.850070334192424,31.192701961888815,95.73013727886973,102.11129489658106,84.88405451977633,92.38731932120845
26.71829733541381,43.18212785427022,12.05861398522211,-50.60130535992994,13.081408897110123,29.054966050174244,-11.646946091679638,29.252431190901916,95.62382973015883,101.66116201345267,84.701073745543,92.27483601029871
25.480314626605832,42.415769605575406,14.097055710655695,-50.10472336888779,13.591942010373714,30.169154566892757,-12.404114879645931,26.350858423717,96.10335326232052,99.90761686588303,85.21930108885772,92.77244880176386
25.242795401201874,41.39028249851253,15.7918211943379,-48.54934628596857,14.35162248141296,31.147872354690662,-13.107149023340753,22.583901854026408,96.20121250461852,96.9233918386035,85.47493554751964,93.05368138412086
25.827518227350083,39.401767379900775,17.014681890201246,-46.24775173241596,15.35958182563536,31.944574193885273,-13.74162084802083,18.129004148791864,95.50103209100962,92.89081430880651,84.5836801327523,92.19992174168692
26.98928719172727,36.7205728783556,17.738457831901542,-43.62926601999607,16.529106294914527,32.51271486479345,-14.293102678941068,13.224483155348935,94.18487472169545,88.03770843559505,82.76448128467746,90.38135586917724
28.56724864563148,33.78806334885485,18.080581784442984,-41.20691934320712,17.773482141125896,32.80574914773115,-14.747166841354556,8.130618040135232,92.2952000125315,82.73578542590803,80.40511401175809,87.92944150559106
30.4042357271137,31.110779454049407,18.1512551772812,-39.4757797262846,19.005995616142172,32.7910786062871,-15.089385660518019,3.087839176059788,89.91965244442872,77.41950240933875,78.01299933078735,85.30981466230878
32.34308157423584,29.134254674559998,18.21218944521752,-38.80100927954845,20.13993297183879,32.62505596275605,-15.305331461682727,-1.7279782215191517,87.29529268366423,72.47946304099241,76.11713953927665,83.04186581632894
34.226619325054344,28.07810203986628,17.588862486185462,-39.29564276511337,21.08858046009027,31.713443144514713,-15.380576570107223,-6.2531167101715255,84.76749883849698,68.1500641182356,75.15035334171262,81.59385653110985
35.8976821176293,27.584989506400234,15.967919532531596,-40.48675103712594,21.76522433276932,29.950173143065513,-15.300693311042778,-10.51983403686063,82.64284371841313,64.50469634735236,75.32603983393619,81.2677606904158
37.335996612026065,27.204267045066445,13.420622281546457,-41.7057743785208,22.231267994533482,27.48556999379707,-15.051254009747936,-14.506757828787158,81.05368544312478,61.69030231709803,76.62736373307689,82.07383034516397
38.11095436304822,27.116509588111512,10.727386960485092,-42.91739452028105,22.148427504112988,24.535367117820897,-14.625586472906434,-18.209070833012447,79.46036052732416,59.798546556685324,77.81940986013888,83.28567949166882
37.49953659674793,27.292808087537196,8.990949296035978,-44.08104974541038,20.850650960885105,21.35680882804627,-14.303409608484799,-21.647969028626903,77.94829989348182,58.83218186844715,77.96535711557044,84.52612648926788
36.13915597441883,27.704158375943734,7.955813912338272,-44.45448164328991,18.998442974891987,18.22422157815572,-13.498091990390094,-24.834992695992696,77.21437024304578,58.679726362874135,77.06334468601653,85.73711924386453
34.478136228492076,28.32155628592045,7.532345510286177,-43.7301320664792,17.033704611403664,15.4040549544834,-11.963039427279,-27.77560234172597,77.18988338452618,59.1552915367256,75.17999288087049,86.7628394278313
32.055259569468035,29.115997650071222,8.488128712611797,-41.999688692557356,14.465283370203906,13.129392410799028,-9.784574289105876,-30.47525847243196,77.65903019167308,60.142014388533426,72.51770879149808,86.80788953084993
29.04713364024974,30.05847830098901,10.867844798316582,-39.50661197107911,11.423984976030624,11.573931745983373,-7.126082232462068,-32.93942159472681,78.39098238850784,61.53082701891981,69.37701091117015,85.81265973603695
25.76235758247276,31.119994071268593,14.417649318715121,-36.59852672212401,8.166026544742635,10.790180955792493,-4.20640596973135,-35.17355221521757,79.21575048204431,63.212661528501485,66.10907066546497,83.88711558341674
22.541130868834443,32.27154079351203,17.927360122328537,-33.676650089006216,4.983574779182163,10.170756372052892,-1.2788541361951502,-37.18311084051493,80.04600549335555,65.07845001790156,63.05847085314599,81.2337268098131
19.7019389056004,33.484114300312285,20.870559205393874,-31.142255845145883,2.16400319895547,9.776887358748354,1.3891747449415561,-38.973557977231394,80.93287346634133,67.0191245877395,60.49618099749841,78.12048634310486
17.48457507187777,34.72871042426959,23.09027420165512,-29.340175055109285,-0.052871929274260765,9.651085331948707,3.53595319960732,-40.55035413197584,81.03228969365955,68.92561733863477,58.542749608138365,74.84894729065445
15.64346279284291,35.976324997978736,24.9313864806918,-28.49933308981872,-1.8939842083118492,9.769553101477868,4.9245706419605995,-41.91895981135713,80.19923580220893,70.68886037121047,56.783707596223394,71.7172779219236
13.8999974888211,37.197953854034495,26.67485178471361,-28.656418722574927,-3.637449512331841,10.108493477162028,5.381068249203963,-43.08483552198777,78.49758435020158,72.19978578608243,54.96787152140678,68.97833464527321
13.568342407696036,38.36459282503529,27.004249836534655,-29.15407482768569,-3.9668475641528858,10.644109268825105,5.555191652409121,-44.05344177047846,76.08532359060882,73.37128913824381,53.275661576668426,66.79275297893855
14.82638496927757,39.447237743579535,25.7080938019335,-29.9063506204202,-2.670691529553551,11.352603286292833,5.4906725262371765,-44.83023906343806,73.19336727679365,74.25323623604072,51.70707776200561,65.05535390565865
16.85377130411871,40.416884442263836,23.62748311393989,-30.907132674788045,-0.5900808415599386,12.21017833939004,5.135900421830229,-45.42068790747544,70.10104381916062,74.15550140102096,50.26212007742106,63.19623444558192
19.61302165741654,41.24452875368115,20.871075201925123,-32.07006779878975,2.1663270704539173,13.193037237941553,4.531690715099103,-45.83024880920675,67.10826479273783,72.96657514780509,48.94078852291295,61.433436789807274
22.848036262796086,41.90116651043354,17.77476463974199,-33.30880280042402,5.262637632638871,14.277382791773107,3.718858781947347,-46.06438227523722,64.5043727958091,70.84972241505056,47.74308309848129,59.788747726974634
26.226838167382084,42.35779354511578,14.72475245827809,-34.53698448768955,8.31264981410095,15.439417810708164,2.7382199982821476,-46.12854881217754,62.533668659487375,68.0849958983581,46.6690038041279,58.26216725708309
29.369528211878787,42.58540569032084,12.10303041867519,-35.66825966858596,10.93437185370476,16.655345104573826,1.6305897400088725,-46.0282089266384,61.24191647940097,65.0321501427552,45.71855063985004,56.853695380133104
31.83980158308077,42.55499877865259,10.178243710517563,-36.61627515111468,12.85181538166853,17.901367483192644,0.4367833830365271,-45.76882312523412,59.95002973380724,62.09101325991105,44.89172360565044,55.56333209612421
33.06880947456375,42.23756864270399,9.179783793266324,-37.29467774327168,13.84887538516432,19.153687756391264,-0.802383696725883,-45.35585191456812,58.847529601482165,59.65931627007376,44.18852270152729,54.39107740505733
32.67411151081069,41.770931569140885,9.91648334126512,-37.760305998273,13.191094378142225,20.388508733994968,-2.0460961233766284,-44.79475580125654,57.97275239982446,57.94243500762332,43.608947927481495,53.33693130693155
31.005065515855676,40.864622366227195,11.743443926750842,-37.6999086151136,11.44233443772373,21.582033225828127,-3.2535385210067034,-44.090995291910076,57.32569812883594,57.416495253555695,43.152999283513054,52.400893801747316
28.09961869984727,39.07676096726027,14.205755395361848,-36.6379954087206,8.982457937849176,22.710464041715113,-4.3838955137107405,-43.25003089313395,56.90636678851479,58.52220197670158,42.82067676962106,51.58296488950418
23.994256628953735,36.612250509746445,17.05395622198739,-34.67510877271161,6.000466755423076,23.750003991482117,-5.396351725583372,-42.27732311154432,56.714758378862825,60.48689944328362,42.61198038580642,50.8831445702026
19.14984266481042,33.74856057818215,19.89269156852788,-32.03661076782009,2.847429974382976,24.67685588495351,-6.250091780717412,-41.17833245374641,56.75087289987823,63.13882837636993,42.526910132068224,50.30143284384303
14.181153918447308,30.80016683694157,22.332856125030958,-29.031672036424425,-0.11780710867969901,25.467222531954576,-6.904300303202035,-39.95851942635454,57.01471035156101,66.1835168240923,42.565466008406474,49.8378297104241
9.72772139576773,28.084856947212756,24.0230059326841,-26.012269121648387,-2.5596213496055498,26.09730674231014,-7.318161917137331,-38.623344535977594,57.50627073391115,69.25384600623511,42.72764801482299,49.49233516994673
6.324670143043477,25.891902768073123,24.70190328006538,-23.332190191040354,-4.196610121756748,26.543311325845934,-7.450861246614295,-37.17826828922807,58.22555404693048,71.99564209950222,43.01345615131504,49.26494922241136
4.235914036489703,24.452098841593397,24.25098683811484,-21.306049164811157,-4.867166305255523,26.78143909238588,-7.2963769007219526,-35.62875119270939,59.172560290619,74.10274080995259,43.422890417885355,49.155671867816636
3.2565124793181894,23.909667162040932,22.96681417738364,-20.16830824866065,-4.8203194344660005,26.787892851754805,-6.973991411579846,-33.980253753039506,60.34728946497489,75.35035937939301,43.955950814532116,49.164503106163465
3.9935596964514843,24.296028229176954,21.117251431227487,-20.032308871155692,-3.9042631105221517,26.538875413778896,-5.813265357435739,-32.238236476829115,61.637645737244384,75.62677602569056,44.61263734125532,49.2914429374523
6.188618519432566,25.083753348941173,18.477929354279695,-20.48735411418602,-1.9850358254116145,26.010589588282983,-3.650693955602037,-30.40815987068163,63.0797900025118,75.33122238819851,45.39294999805679,49.53649136168133
8.599706351335044,25.840043801852516,15.208097039041604,-21.14423148980859,0.02765054837163916,25.375512036280725,-0.6240755810358678,-28.495484441211374,65.19473516482503,74.83477145906909,46.29688878493471,49.89964837885282
11.325025837539215,26.668188358862608,11.534966604105648,-22.078501570506887,2.4355576491871034,24.25514083885264,2.3224592288243002,-26.505670695030858,67.88087099448785,74.04481678533193,47.32445370188907,50.38091398896586
14.553182379462669,27.459119265464324,7.723889204686202,-23.203450608153616,5.480795833005686,22.343901381374053,4.364000472036423,-24.44417913874713,70.95893143429748,73.03396945087388,48.475644748921695,50.98028819201954
17.972263069121254,28.111242332723123,4.059816670474902,-24.432364854621483,8.843491656958577,19.769045727489356,5.202956071887456,-22.31647027897452,74.20009295991804,71.8748405395836,49.750461926030766,51.697770988015236
21.10391075314692,28.514489910730845,0.8349644311147131,-25.67853056178774,11.996054905503115,16.746166695591455,4.753974309525802,-20.12800462231644,77.35085581788735,70.64004113534611,51.14890523321628,52.53336237695203
23.63354194778549,28.47497979245054,-1.6547602889859263,-26.85523398152327,14.561216583336318,13.552930919119717,3.1356069107678195,-17.88424267539085,80.1564810760392,69.4021823220537,52.670974670480064,53.48706235883037
25.345995498591947,27.80676866499016,-3.140665835080654,-27.87576136570533,16.283124768623566,10.502257193809783,0.6530090593860223,-15.590644944802989,82.38298348632634,68.2338751835905,54.31667023781847,54.558870933650724
